position,density,energy,velocity,pressure
-0.598125,0.5416666666666646,2.5,0,0.5416666666666645
-0.59625,0.6234064651471283,2.5,0,0.623406465147128
-0.594375,0.7005171413057901,2.5,0,0.70051714130579
-0.5925,0.7703979942388643,2.5,0,0.7703979942388642
-0.590625,0.8311084160726786,2.5,0,0.8311084160726784
-0.58875,0.8815029165724357,2.5,0,0.8815029165724356
-0.5868749999999999,0.9212825996676657,2.5,0,0.9212825996676655
-0.585,0.9509459146778515,2.5,0,0.9509459146778512
-0.583125,0.9716456531772103,2.5,0,0.9716456531772101
-0.5812499999999999,0.9849784909962362,2.5,0,0.984978490996236
-0.579375,0.9927410403028653,2.5,0,0.992741040302865
-0.5775,0.9966900078685967,2.5,0,0.9966900078685965
-0.5756249999999999,0.9983428216186773,2.5,0,0.9983428216186772
-0.57375,0.9988472840495671,2.5,0,0.9988472840495669
-0.571875,0.9989359555569906,2.5,0,0.9989359555569903
-0.57,0.9989668955556452,2.5,0,0.998966895555645
-0.568125,0.9990384917212987,2.5,0,0.9990384917212984
-0.5662499999999999,0.9991465154316723,2.5,0,0.9991465154316721
-0.564375,0.9992767282700784,2.5,0,0.9992767282700782
-0.5623299638025465,0.9994273672543693,2.4993955822626925,0.0010739505268292193,0.9991861921556008
-0.5605794547498847,0.9995534500026719,2.4995477197805784,9924139386679231e-20,0.9993727106429737
-0.5587552309148347,0.9996730072645073,2.4996705143059383,-0.00023824327626321458,0.9995411392557759
-0.5568978994894582,0.9997766005471254,2.4997740479174886,-0.00035081922038214666,0.9996859357855937
-0.5550227990277088,0.9998585612002119,2.4998562163473124,-0.0003151447636757036,0.999800578708489
-0.5531339606711559,0.9999163053272638,2.4999144873045616,-0.00013999494641340972,0.9998815045982459
-0.5512332975406978,0.9999501375830105,2.499948649530621,0.0001306997399734277,0.9999289857143294
-0.5493368503910431,0.9999633356308615,2.499961735235894,0.0002909557595578896,0.9999475502510147
-0.547455340243293,0.9999622252464309,2.499960324157898,0.00031332484871450045,0.9999461576218177
-0.5455820570068243,0.999954643591413,2.499952383827222,0.0002673952172820243,0.9999358093968329
-0.5437134240049907,0.9999484097750476,2.499945772826315,0.00017877531160990072,0.9999274213759667
-0.5418474190057598,0.9999499368404448,2.4999469241500103,6796403934753685e-20,0.999929918594006
-0.539981907370365,0.9999627752360817,2.4999594127222284,-4826342858401039e-20,0.9999482214019074
-0.538115989349008,0.9999865017229586,2.4999828656076972,-0.00015701402130393005,0.9999817124770716
-0.5362475094415298,1.0000164601245514,2.5000126922107215,-0.00022168087949590347,1.0000238767514364
-0.5343734172513733,1.0000444407965137,2.50004072256311,-0.0001916051832089655,1.0000632372259832
-0.5324888418721473,1.000060063650578,2.50005647403124,21673693046262005e-21,1.000085243264474
-0.5305961863366799,1.0000550830607875,2.500051383062642,0.0002876271986366385,1.0000782476286951
-0.5287130826309704,1.000034794709349,2.50003098923903,0.0003678490083447955,1.0000496918635813
-0.5268392081097102,1.0000113820723446,2.5000079136902196,0.0003126588752528649,1.0000167213808455
-0.5249696449878001,0.9999956178607562,2.499993020429626,0.0002053038211355626,0.9999944190117886
-0.5231014273060713,0.9999932972548058,2.4999920105703235,8602643791087166e-20,0.9999908867279754
-0.5212326626281963,1.0000041800623791,2.500004461234022,-17014006262149128e-21,1.0000058027220775
-0.5193619718157046,1.000023097375207,2.5000249584432703,-7674293205572472e-20,1.0000319655168273
-0.5174885319445667,1.000042775458268,2.5000459414693,-7926386028908489e-20,1.0000592225797624
-0.515612014051286,1.0000568758320494,2.500060783849571,-19958084374125038e-21,1.0000787068282202
-0.5137323621676807,1.0000618971116821,2.5000657694975037,897238320629293e-19,1.0000855023208257
-0.5118512522671174,1.0000578195747363,2.50006080439878,0.00018869153926752842,1.0000795593362872
-0.5099731083642474,1.0000476940177303,2.500049064203104,0.00021311001051392266,1.0000651435960795
-0.5080984142007307,1.0000363146747508,2.5000355694840994,0.00018379738222568413,1.0000489641807333
-0.5062254846792742,1.0000285119496952,2.5000253681441076,0.00012634930425922387,1.000037769484039
-0.504353332059244,1.0000275700533436,2.500021930181733,5969988481407103e-20,1.0000361500694226
-0.5024811390154124,1.0000341288313794,2.500026021581657,-18371361017146613e-22,1.0000450112997523
-0.5006082510157569,1.0000460554429362,2.500035569788023,-42880822582128615e-21,1.0000613965685068
-0.49873416002657117,1.0000596151784775,2.5000468619629967,-50524016746819995e-21,1.0000801191497664
-0.4968586835979779,1.0000714463032983,2.5000565642553063,-18337834747831856e-21,1.000096515904471
-0.49498183048328764,1.0000799221317518,2.500063116753435,6345722936574311e-20,1.0001083487685094
-0.4931041975578133,1.0000854530235634,2.500067039503596,0.0001788289317582942,1.0001162254894078
-0.49122752783852863,1.0000899916601045,2.500070410176266,0.00023030810905058644,1.000122902357892
-0.48935261676397657,1.0000961036200477,2.5000758841868866,0.00021622233213813844,1.0001319751758324
-0.4874784812457527,1.0001059640980758,2.5000856517412,0.00018242175047261712,1.0001464727818232
-0.4856046693423982,1.0001205836570792,2.5001006588100196,0.00014446837733702504,1.000167774052348
-0.48373085066404087,1.0001394684772484,2.500120280440384,0.0001145689651508539,1.0001951355774674
-0.4818568166996226,1.0001607993280273,2.500142534933222,9943674570471525e-20,1.0002259471591581
-0.47998241355537186,1.0001820905560554,2.5001647909750564,0.00010634982547716307,1.0002566613456523
-0.4781076184910526,1.0002010633367253,2.5001846844126163,0.00013725446777802325,1.000284024717147
-0.47623249302105963,1.0002162890286797,2.5002007812264653,0.00019110154381486022,1.0003059866744317
-0.47435722542997427,1.0002274106925326,2.500212791019898,0.00025586185824848896,1.000322015181891
-0.4724821140840091,1.0002350119458534,2.50022140621555,0.00030691678516624345,1.0003329158479133
-0.4706073393631837,1.000240254374284,2.500227898898402,0.0003275772545925315,1.00034032382536
-0.46873280787444555,1.000244421644659,2.5002336260002673,0.0003293612119555548,1.0003460629876337
-0.46685840622403924,1.0002485092432976,2.5002395906549237,0.0003237665170212301,1.0003515667993308
-0.46498404534167503,1.0002529713223507,2.50024617963155,0.00031730032250754456,1.0003575176520079
-0.4631096691497441,1.0002576816991302,2.5002531377484716,0.00031303928884624313,1.0003637855984278
-0.4612352514472629,1.000262103828257,2.500259772310837,0.0003119270184566069,1.0003696596039573
-0.45936078457710133,1.0002655836216108,2.5002652903950193,0.00031441689301735514,1.0003742519796135
-0.4574862808145142,1.0002676104136592,2.5002690923721524,0.0003189233051571386,1.0003768622449791
-0.455611758211033,1.000267940742361,2.500270904921337,0.0003235335667669784,1.000377151538011
-0.45373723365514135,1.0002666059452732,2.5002707811155336,0.0003266564116154936,1.0003751559550076
-0.45186271787419324,1.0002638444748586,2.5002690153994176,0.0003275018744854581,1.0003711955240184
-0.44998821250914095,1.000259998096374,2.500266018486863,0.00032637582712531855,1.0003657330832705
-0.44811371584211307,1.0002554080522532,2.5002621939347502,0.0003235315831695685,1.0003592326869837
-0.44623922354636303,1.0002503396976126,2.5002578495493197,0.0003192266949764274,1.0003520566394648
-0.44436472904683477,1.0002449498438786,2.5002531602156495,0.0003139748793869604,1.0003444205811511
-0.44249022655571374,1.0002392959881634,2.5002481810725254,0.00030819206302321864,1.0003364053905432
-0.44061571232185365,1.0002333727260082,2.500242893169373,0.00030210658300857226,1.0003280059016406
-0.4387411846649008,1.0002271530856384,2.5002372541228737,0.0002957769966437415,1.0003191866549819
-0.4368666434105179,1.0002206183834594,2.5002312336617907,0.00028916419021025056,1.0003099228451817
-0.4349920890689973,1.000213772720355,2.5002248300770082,0.00028219973277969083,1.000300220757746
-0.4331175222333235,1.0002066446284286,2.5002180712738857,0.00027483121563877475,1.0002901206289407
-0.4312429432563529,1.0001992808150675,2.5002110067036907,0.00026704164582710255,1.0002796884152196
-0.4293683520991403,1.0001917369919333,2.500203696228736,0.0002588511835106045,1.0002690032248787
-0.4274937483680388,1.0001840694619815,2.5001962002585,0.0002503082492247833,1.0002581454799375
-0.4256191314618765,1.0001763294242265,2.5001885733236677,0.00024147677812079655,1.000247188689314
-0.423744500749689,1.0001685604712174,2.500180861477525,0.00023242421584141658,1.00023619563276
-0.42186985566329244,1.0001607987400791,2.5001731027693146,0.0002232122014929845,1.000225218296974
-0.419995195814956,1.0001530746565097,2.5001653294724404,0.00021389427198003413,1.0002143001503112
-0.4181205210218317,1.0001454151411349,2.500157570720187,0.0002045168673344264,1.000203479200858
-0.4162458312665169,1.0001378454213832,2.500149854561608,0.00019512159912689914,1.0001927906277512
-0.41437112665349873,1.000130390023476,2.5001422089785446,0.00018574790336344887,1.000182268352851
-0.4124964073639868,1.0001230729269317,2.5001346618916687,0.00017643440064095032,1.0001719454726856
-0.41062167361054486,1.0001159171270622,2.500127240487916,0.0001672197943034291,1.0001618538365347
-0.40874692561590115,1.000108943944536,2.500119970296444,0.00015814212510695047,1.0001520232019323
-0.4068721636325065,1.0001021723776402,2.50011287436913,0.00014923648818717668,1.0001424803627008
-0.4049973879450721,1.0000956186787164,2.5001059727711303,0.00014053367497392913,1.0001332485090224
-0.40312259887498514,1.000089296210781,2.500099282430485,0.00013205949676617354,1.0001243469209826
-0.40124779678340006,1.000083215546483,2.5000928172825025,0.0001238348692164566,1.0001157909747334
-0.39937298207599853,1.0000773847216569,2.5000865885884154,0.00011587627995571306,1.000107592370913
-0.3974981551815441,1.0000718095453696,2.50008060530174,0.0001081962140725295,1.0000997594733394
-0.3956233165584033,1.0000664938887256,2.5000748743866406,0.00010080463407573755,1.0000922976634785
-0.3937484666883779,1.000061439908896,2.5000694010385893,9370999744538683e-20,1.0000852096525452
-0.3918736060649057,1.0000566481989177,2.5000641888018493,8691960965898875e-20,1.0000784957312625
-0.38999873518792366,1.0000521178784685,2.500059239609359,8043970435713067e-20,1.0000721539653539
-0.3881238545612493,1.0000478466548084,2.5000545537870904,7427508203594599e-20,1.000066180361296
-0.3862489646800927,1.0000438308831752,2.500050130063945,6842919003733117e-20,1.0000605690277864
-0.38437406603502555,1.0000400656469903,2.500045965615791,629035540235555e-19,1.000055312349583
-0.3824991591159868,1.0000365448668038,2.500042056156497,57697207225456724e-21,1.0000504011793716
-0.38062424440919673,1.0000332614365266,2.5000383960744603,5280666106531938e-20,1.0000458250439588
-0.37874932239409775,1.000030207378448,2.500034978603117,4822609513950405e-20,1.0000415723555343
-0.3768743935432251,1.000027374005897,2.5000317960094405,4394768666900342e-20,1.0000376306183372
-0.3749994583157328,1.0000247520833663,2.500028839784882,39961880124059074e-21,1.0000339866240215
-0.3731245171537074,1.000022331976047,2.50002610082597,36257725573635e-18,1.0000306266317343
-0.3712495704849334,1.0000201037835739,2.5000235695958652,3282357029357861e-20,1.0000275365313176
-0.3693746187202951,1.0000180574557846,2.5000212362628047,29647391759573413e-21,1.000024701990097
-0.36749966225213,1.0000161828906897,2.5000190908150812,2671701266642627e-20,1.000022108584708
-0.365624701453455,1.0000144700162656,2.500017123154856,2402017721441388e-20,1.0000197419192942
-0.36374973667779,1.0000129088592986,2.5000153231755102,21544702550899823e-21,1.0000175877319883
-0.3618747682548646,1.000011489604558,2.5000136808276063,19278633263821506e-21,1.0000156319909876
-0.3599997964961193,1.0000102026466817,2.500012186177392,17210017907941995e-21,1.0000138609803744
-0.3581248216949188,1.000009038636256,2.5000108294605727,15326896649321088e-21,1.0000122613752942
-0.3562498441263723,1.000007988520722,2.5000096011325983,13617366751647452e-21,1.0000108203058213
-0.35437486404773305,1.0000070435800503,2.5000084919155436,12069676163080207e-21,1.0000095254089276
-0.35249988169897367,1.0000061954571096,2.5000074928410765,10672310229244971e-21,1.000008364868978
-0.3506248973009042,1.000005436182709,2.5000065952887764,9413905363824014e-21,1.0000073274479173
-0.34874991105784203,1.000004758195173,2.5000057910188773,8283504702807687e-21,1.0000064025063355
-0.34687492315856566,1.0000041543543214,2.500005072198569,7270672059132867e-21,1.0000055800165015
-0.34499993377643867,1.000003617949897,2.5000044314213774,6365501666211481e-21,1.0000048505683927
-0.34312494307050234,1.0000031427045988,2.500003861719543,5558640070337083e-21,1.0000042053695362
-0.34124995118647844,1.0000027227723485,2.500003356569952,4841242591824657e-21,1.000003636239614
-0.33937495825521463,1.0000023527328494,2.5000029098949503,4205113410913001e-21,1.000003135601035
-0.3374999643955705,1.0000020275834507,2.5000025160593413,36425727518506388e-22,1.0000026964664348
-0.33562496971583433,1.0000017427291068,2.5000021698646764,31463764300174475e-22,1.000002312423792
-0.3337499743141465,1.0000014939710622,2.5000018665417745,27097210401745017e-22,1.0000019776197118
-0.33187497827936097,1.0000012774947813,2.500001601742165,23262309311399997e-22,1.000001686741361
-0.3299999816920529,1.0000010898576381,2.500001371529201,1989974130622662e-21,1.0000014349977087
-0.32812498462426426,1.0000009279770692,2.500001172369564,16953624215962293e-22,1.0000012181010864
-0.32624998714066267,1.0000007891198985,2.500001001125991,14371388466970199e-22,1.0000010322501647
-0.3243749893001297,1.0000006708935079,2.5000008550519555,12104147227131561e-22,1.0000008741152915
-0.3224999911562463,1.0000005712395228,2.5000007317891333,10106003001711595e-22,1.0000007408271305
-0.3206249927581395,1.000000488430612,2.5000006293682966,8333286007915761e-22,1.000000629969376
-0.31874999415149835,1.0000004210708833,2.500000546214282,6743837539239892e-22,1.0000005395762612
-0.3168749953793712,1.0000003681004168,2.5000004811555723,5296176204045042e-22,1.0000004681356442
-0.31499999648313315,1.000000328804168,2.5000004334387187,3948946224981492e-22,1.0000004145982286
-0.3131249975032195,1.0000003028250655,2.5000004027472333,2659840773666139e-22,1.0000003783931368
-0.31124999848011004,1.0000002901809721,2.500000389224374,1384519304990549e-22,1.0000003594499534
-0.30937499945512775,1.0000002912859027,2.500000393500157,7547250719501511e-24,1.0000003582280208
-0.30750000047161014,1.0000003069763024,2.5000004167235166,-13183750397898492e-23,1.0000003757540297
-0.3056250015764191,1.0000003385432017,2.500000460600597,-2852090535978301e-22,1.0000004136688225
-0.3037500028210389,1.000000387771017,2.500000527440196,-45855227978398886e-23,1.0000004742840085
-0.30187500426304964,1.0000004569835357,2.5000006202073273,-6584149352105044e-22,1.0000005606483138
-0.30000000596754145,1.0000005490973882,2.5000007425856254,-8920076401689128e-22,1.000000676623097
-0.29812500800903025,1.0000006676837407,2.5000008990495144,-11673235401618583e-22,1.000000826967562
-0.29625001047336597,1.0000008170391261,2.5000010949469025,-1493310219706375e-21,1.0000010174350689
-0.29437501345987627,1.0000010022656662,2.500001336592295,-18800628215380422e-22,1.0000012548813915
-0.2925000170831424,1.0000012293603515,2.5000016313693108,-2339110620503222e-21,1.0000015473853696
-0.29062502147607505,1.0000015053121563,2.5000019878404913,-28835921978118783e-22,1.000001904381691
-0.2887500267913275,1.0000018382048883,2.500002415861132,-35285927249503416e-22,1.0000023368045852
-0.2868750332038792,1.0000022373244273,2.500002926695008,-4291412391766354e-21,1.000002857241715
-0.28500004091289066,1.0000027132706133,2.5000035331318777,-5191787218975343e-21,1.0000034800986801
-0.2831250501543931,1.0000032780737595,2.5000042496067447,-6251073250644365e-21,1.0000042217735576
-0.28125006119771795,1.0000039453153196,2.500005092320649,-7492690472507842e-21,1.000005100839542
-0.27937507434712666,1.0000047302517243,2.5000060793625547,-8942667419920363e-21,1.0000061382323429
-0.27750008994539155,1.0000056499394085,2.5000072308309633,-10629366750112375e-21,1.0000073574372017
-0.27562510837683407,1.0000067233589114,2.500008568953319,-1258346704844864e-20,1.0000087846708423
-0.27375013006781357,1.0000079715365973,2.500010118200895,-14837914424957726e-21,1.0000104490565627
-0.2718751555105131,1.0000094176612524,2.500011905394792,-17429493339694148e-21,1.0000123827901424
-0.2700001852648004,1.0000110871910206,2.5000139597962066,-20398718104191877e-21,1.0000146212929937
-0.2681252199468874,1.0000130079443126,2.500016313171731,-23789298164272022e-21,1.0000172033474923
-0.2662502602423875,1.0000152101662279,2.500018999822141,-276484331677973e-19,1.000020171206992
-0.2643753069087282,1.0000177265620813,2.5000220565638194,-320270136499025e-19,1.000023570672046
-0.2625003607738336,1.000020592294354,2.500025522658475,-36979701970004374e-21,1.0000274511276592
-0.2606254227517427,1.0000238449408598,2.50002943969007,-42563144371588597e-21,1.0000318655352456
-0.2587504938562226,1.0000275244124528,2.5000338513900573,-48834821118829906e-21,1.0000368703707863
-0.2568755751802526,1.000031672828841,2.500038803413759,-5585418149210879e-20,1.0000425254984153
-0.2550006679028385,1.0000363343501717,2.5000443430708192,-6368130684556144e-20,1.0000488939658645
-0.25312577329195585,1.000041554961018,2.5000505190113804,-723763118861446e-19,1.000056041707426
-0.2512508926967168,1.0000473822056504,2.5000573808699516,-8199848550441351e-20,1.000064037148104
-0.24937602756490027,1.000053864873813,2.5000649788659843,-9260704497301834e-20,1.0000729507099002
-0.24750117947799774,1.000061052632076,2.5000733633530787,-0.0001042635667176774,1.000082854222015
-0.24562635010623537,1.0000689955908635,2.500082584300415,-0.00011702863639131847,1.0000938202362415
-0.243751541212985,1.0000777437892812,2.500092690678673,-0.00013096209730763557,1.0001059212429926
-0.24187675465137176,1.0000873465702438,2.5001037297106192,-0.00014612229446338718,1.0001192287722696
-0.24000199234662337,1.0000978518143593,2.500115745942344,-0.00016256484922912493,1.0001338123544026
-0.2381272562821452,1.0001093050056231,2.5001287800988083,-0.00018033964683487064,1.0001497383109748
-0.2362525485398175,1.000121748100005,2.500142867690023,-0.00019948400718896805,1.000167068331047
-0.2343778712204746,1.0001352181787424,2.5001580373521874,-0.00022002165172909442,1.0001858577889768
-0.23250322642686572,1.000149745885139,2.5001743089349824,-0.00024195959647249486,1.0002061537707418
-0.2306286162367085,1.0001653536745128,2.5001916913880455,-0.0002652841389497351,1.0002279928099584
-0.22875404267568705,1.0001820539413366,2.5002101805419175,-0.00028995826350574467,1.0002513983842358
-0.2268795076795821,1.000199847126312,2.500229756918521,-0.00031592099325345103,1.0002763782918238
-0.22500501317534236,1.0002187199299521,2.5002503837329817,-0.00034309340576836394,1.0003029220749122
-0.22313056106432705,1.0002386437597326,2.5002720052578282,-0.00037138092650234987,1.0003309986562485
-0.22125615314329694,1.0002595734627624,2.5002945456426584,-0.0004006746496391817,1.000360554242506
-0.21938179110781267,1.0002814462657492,2.500317908148065,-0.00043085665959033366,1.0003915103381162
-0.21750747649912192,1.0003041803919634,2.5003419741435837,-0.00046180151652169913,1.0004237611712146
-0.21563321057713,1.0003276725154018,2.500366600796271,-0.0004933714355653364,1.000457169469533
-0.2137589941897969,1.0003517923406384,2.5003916150631444,-0.0005253951567808548,1.000491558652663
-0.21188482766355607,1.0003763723119115,2.50041680106957,-0.0005576299983169232,1.0005266993626303
-0.21001071031891536,1.0004011905364967,2.500441877910698,-0.0005897205815110544,1.0005622885090542
-0.20813664025559003,1.0004259457715294,2.5004664659422007,-0.0006211436375248036,1.0005979198313508
-0.20626261421984532,1.0004502252452647,2.500490042236675,-0.0006511833790545862,1.0006330472251208
