position,density,energy,velocity,pressure
-0.598125,0.5416666666666646,2.5,0,0.5416666666666645
-0.59625,0.6234064651471283,2.5,0,0.623406465147128
-0.594375,0.7005171413057901,2.5,0,0.70051714130579
-0.5925,0.7703979942388643,2.5,0,0.7703979942388642
-0.590625,0.8311104156658944,2.5,0,0.8311104156658942
-0.58875,0.8815202354424729,2.5,0,0.8815202354424727
-0.5868749999999999,0.9213420406386752,2.5,0,0.9213420406386751
-0.585,0.9510820819520837,2.5,0,0.9510820819520833
-0.583125,0.9718918649696296,2.5,0,0.9718918649696295
-0.5812499999999999,0.985357538820625,2.5,0,0.9853575388206248
-0.579375,0.9932585865840989,2.5,0,0.9932585865840987
-0.5775,0.9973325907599877,2.5,0,0.9973325907599875
-0.5756249999999999,0.9990805356714065,2.5,0,0.9990805356714064
-0.57375,0.9996396133659136,2.5,0,0.9996396133659133
-0.571875,0.9997390073072633,2.5,0,0.9997390073072632
-0.57,0.9997404323126372,2.5,0,0.9997404323126369
-0.568125,0.999751434193089,2.5,0,0.9997514341930888
-0.5662499999999999,0.9997800365437428,2.5,0,0.9997800365437426
-0.564375,0.9998245855874504,2.5,0,0.9998245855874502
-0.5624676194313265,0.9998823533912186,2.499847878893747,0.0019807539304908246,0.9998368942761043
-0.5606089999673886,0.9999466562390935,2.4999279689325484,0.0009379121823471853,0.9999274837909229
-0.5587417789752434,1.0000130635619644,2.50000813698599,0.00047453554227277724,1.0000203471834963
-0.556870145798231,1.000075800479034,2.5000835557284353,0.00029741723764905274,1.0001080664555932
-0.5549964115968729,1.000129718673873,2.5001485992143873,0.0002477657061890071,1.0001835951145717
-0.5531217330220008,1.0001709237112764,2.500198702939686,0.00025433483409361204,1.000241468669879
-0.5512466617682457,1.0001971995716263,2.5002312050255746,0.0002874601019314154,1.0002785082970072
-0.5493715124288612,1.0002081842636963,2.5002456369413397,0.0003227931434820709,1.0002941040353825
-0.5474964503886439,1.0002052805168853,2.5002436285934877,0.00034446659055730665,1.0002901108220437
-0.5456215415358161,1.0001913215961094,2.5002285088848204,0.0003460135521761763,1.000270399403273
-0.5437467921246495,1.000170047219629,2.500204680114125,0.00032763208069962863,1.0002401397118625
-0.5418721714176898,1.0001454722260488,2.50017686635763,0.0002939376075279086,1.0002049300859521
-0.5399976229457916,1.0001212460186384,2.5001493526089567,0.00025270012198159487,1.000169907369594
-0.5381230925398708,1.0001001011289123,2.5001253316321863,0.000209900255163107,1.0001389742973874
-0.5362485362874427,1.0000834744077003,2.5001064575288567,0.00016889445349411547,1.000114260953019
-0.5343739002164924,1.000071356841478,2.5000926713811196,0.00013536056693650168,1.0000958997645626
-0.5324991425101515,1.000062392167914,2.5000823223388284,0.00011393988964732198,1.0000821443813805
-0.5306242887489305,1.0000545670666001,2.5000729957081536,0.00010215708783153479,1.0000703070379942
-0.5287493938334765,1.000046925346262,2.500063577517481,9278254228836334e-20,1.0000591118573552
-0.5268744839279604,1.0000393586784644,2.5000539964055375,8305730355410393e-20,1.0000484065484119
-0.5249995687958452,1.00003209037325,2.5000445915309317,7234264700937488e-20,1.0000384582133448
-0.523124650048576,1.0000254092093386,2.500035783442513,6094280843872891e-20,1.0000295981332272
-0.5212497258013485,1.0000195443130435,2.5000279157142065,4948934023858172e-20,1.0000220624129945
-0.5193747936541848,1.000014619346638,2.5000211938627674,3867166435164505e-20,1.000015940720097
-0.5174998515078709,1.0000106508630107,2.5000156799854296,29019030255488064e-21,1.000011183118389
-0.5156248984127396,1.0000075698891997,2.5000113179965004,208393489754131e-19,1.0000076355775331
-0.5137499354672084,1.0000052532328974,2.500007972751011,14051254568065746e-21,1.000005085669062
-0.511874962694168,1.0000035552426494,2.5000054711091124,8802290811291963e-21,1.000003306216751
-0.5099999809334876,1.0000023337907975,2.5000036365776364,5075139758435391e-21,1.0000020890883594
-0.5081249921522165,1.0000014670413446,2.500002312648902,26085525731791057e-22,1.0000012652350876
-0.5062499983424718,1.000000860300437,2.5000013735076863,11045744526991923e-22,1.0000007107739317
-0.5043750014548977,1.0000004446610287,2.5000007239999906,23625233905962697e-23,1.0000003420354162
-0.5025000028039392,1.00000017082882,2.5000002930621608,-23021833951991273e-23,1.0000001045507956
-0.5006250031804544,1.0000000021169848,2.5000000257176103,-44767534587918367e-23,0.9999999615400417
-0.4987500030700783,0.999999909642966,2.4999998775828245,-519900163039866e-21,0.9999998860299057
-0.4968750027315793,0.9999998699998764,2.499999812256205,-5094482200890764e-22,0.9999998569387563
-0.49500000229793567,0.9999998643815654,2.4999998003811617,-4538826348711964e-22,0.9999998575261436
-0.4931250018530118,0.9999998782491117,2.499999819265634,-37926482387532845e-23,0.9999998748439651
-0.49125000143696795,0.9999999010329738,2.4999998524359333,-3006337699838289e-22,0.9999998994376301
-0.4893750010567863,0.999999925681324,2.499999888912405,-2241817393378795e-22,0.9999999249787881
-0.48750000072840594,0.9999999480516586,2.499999922238573,-15606834737759684e-23,0.9999999477618466
-0.48562500046125523,0.999999966205314,2.499999949370052,-9981221891102498e-23,0.9999999660936515
-0.48375000025784803,0.9999999797014115,2.499999969574409,-56667414972167964e-24,0.9999999796613307
-0.48187500011513196,0.9999999889777059,2.4999999834739977,-26259650171388305e-24,0.9999999889643373
-0.48000000002410215,0.9999999948720757,2.4999999923104124,-6766795408295157e-24,0.9999999948679477
-0.4781249999731375,0.999999998300404,2.49999999745126,42547394367073e-22,0.999999998299231
-0.47624999995042255,1.0000000000753093,2.5000000001131335,9301568226226543e-24,1.0000000000750053
-0.4743749999456393,1.000000000831575,2.500000001247402,1054940734325254e-23,1.000000000831504
-0.47249999995077574,1.0000000010192176,2.5000000015288344,9682542060769253e-24,1.0000000010192027
-0.47062499996022655,1.0000000009307353,2.500000001396104,7876697920868063e-24,1.0000000009307324
-0.4687499999704772,1.0000000007396859,2.500000001109529,5868824789857955e-24,1.0000000007396852
-0.46687499997962123,1.0000000005379626,2.5000000008069434,40601777596687835e-25,1.0000000005379623
-0.46499999998686736,1.0000000003662508,2.500000000549376,2620079350377231e-24,1.0000000003662506
-0.46312499999211687,1.0000000002362583,2.5000000003543867,15741024681753864e-25,1.0000000002362581
-0.4612499999956381,1.0000000001454397,2.5000000002181593,8714458736647326e-25,1.0000000001454394
-0.45937499999783343,1.0000000000858218,2.5000000001287326,4329889186750522e-25,1.0000000000858216
-0.45749999999909974,1.000000000048678,2.5000000000730167,17994750806382742e-26,1.0000000000486777
-0.45562499999976436,1.0000000000265818,2.5000000000398725,47079429336421936e-27,1.0000000000265816
-0.45375000000006865,1.0000000000139846,2.500000000020977,-13749388386783924e-27,1.0000000000139844
-0.45187500000017494,1.0000000000070883,2.5000000000106324,-3499745231359571e-26,1.000000000007088
-0.4500000000001842,1.0000000000034595,2.5000000000051887,-36844774374624175e-27,1.0000000000034592
-0.44812500000015415,1.0000000000016243,2.5000000000024354,-3082608080203654e-26,1.000000000001624
-0.4462500000001145,1.0000000000007327,2.5000000000010982,-2290201646448981e-26,1.0000000000007325
-0.4443750000000786,1.0000000000003169,2.5000000000004747,-15728833376716202e-27,1.0000000000003166
-0.4425000000000509,1.0000000000001317,2.5000000000001963,-10177729268995665e-27,1.0000000000001315
-0.44062500000003135,1.0000000000000522,2.5000000000000773,-6270847985342418e-27,1.000000000000052
-0.43875000000001846,1.0000000000000195,2.500000000000029,-37018484439548614e-28,1.0000000000000193
-0.4368750000000105,1.0000000000000073,2.50000000000001,-21019585653282578e-28,1.000000000000007
-0.43500000000000577,1.0000000000000027,2.5000000000000036,-11511128005865647e-28,1.0000000000000024
-0.43312500000000304,1.0000000000000007,2.5000000000000013,-6088231623988876e-28,1.0000000000000004
-0.4312500000000016,1.0000000000000002,2.5000000000000004,-3109658190147711e-28,1
-0.42937500000000073,0.9999999999999999,2.5000000000000004,-15378846664396544e-29,0.9999999999999996
-0.4275000000000004,0.9999999999999999,2.5,-7342065013848736e-29,0.9999999999999996
-0.42562500000000014,1,2.5000000000000004,-3395405215171164e-29,0.9999999999999998
-0.42375,0.9999999999999998,2.5000000000000004,-1502963330357579e-29,0.9999999999999996
-0.42187500000000006,1,2.5000000000000004,-658135250126109e-29,0.9999999999999998
-0.42,0.9999999999999999,2.5000000000000004,-27854334795299676e-31,0.9999999999999996
-0.41812499999999997,0.9999999999999997,2.5000000000000004,-11762459771945306e-31,0.9999999999999994
-0.41625,1,2.5,-4931486419627671e-31,0.9999999999999998
-0.414375,1,2.5,-33916920931630825e-32,0.9999999999999998
-0.4125,0.9999999999999998,2.5,-4753726886998653e-31,0.9999999999999996
-0.410625,1,2.5,-464725384784318e-30,0.9999999999999998
-0.40874999999999995,0.9999999999999997,2.5,-9482995193048502e-31,0.9999999999999994
-0.406875,1,2.5,-8651151055531392e-31,0.9999999999999998
-0.40499999999999997,1,2.5,-8720312922945292e-31,0.9999999999999998
-0.40312499999999996,1,2.5,-11365010754867773e-31,0.9999999999999998
-0.40125,1.0000000000000002,2.4999999999999996,-11565350522416693e-31,1
-0.399375,1.0000000000000004,2.4999999999999996,-857546628775615e-30,1.0000000000000002
-0.39749999999999996,1.0000000000000002,2.4999999999999996,-2627928161992516e-31,1
-0.395625,1.0000000000000007,2.4999999999999996,8532298775825224e-31,1.0000000000000004
-0.39375,1.0000000000000004,2.4999999999999996,9742067016052567e-31,1.0000000000000002
-0.391875,1,2.5,11794696462115187e-31,0.9999999999999998
-0.39,1.0000000000000004,2.5,14159884955194517e-31,1.0000000000000002
-0.388125,1.0000000000000002,2.5,9914985657632394e-31,1
-0.38625,1,2.5,7209058086361381e-31,0.9999999999999998
-0.384375,1,2.5,6542272632122394e-31,0.9999999999999998
-0.38249999999999995,0.9999999999999999,2.5,2348424152011814e-31,0.9999999999999996
-0.380625,0.9999999999999999,2.5,1033211248367906e-31,0.9999999999999996
-0.37875,1,2.5,-19652978702405867e-33,0.9999999999999998
-0.37687499999999996,0.9999999999999999,2.5,-19200353588525758e-32,0.9999999999999996
-0.375,1,2.5,-43641036331289376e-32,0.9999999999999998
-0.373125,1,2.5,-2650085588263375e-31,0.9999999999999998
-0.37124999999999997,1,2.5,-13920976552627252e-32,0.9999999999999998
-0.369375,1.0000000000000002,2.5,-17253210146959405e-33,1
-0.3675,1.0000000000000002,2.5,1930365972687063e-31,1
-0.365625,1,2.5,19978414110867173e-32,0.9999999999999998
-0.36375,1.0000000000000002,2.5,21246315717694736e-32,1
-0.36187499999999995,0.9999999999999999,2.5,-9215494687730207e-32,0.9999999999999996
-0.36,1,2.5,34162553737556193e-33,0.9999999999999998
-0.358125,1.0000000000000002,2.5,13231686115917026e-32,1
-0.35624999999999996,1,2.5,-21377432875773733e-32,0.9999999999999998
-0.354375,1.0000000000000002,2.5,-12760429061683274e-32,1
-0.3525,1,2.5,-36307769129769157e-32,0.9999999999999998
-0.35062499999999996,0.9999999999999999,2.5,-14766483235358215e-32,0.9999999999999996
-0.34875,1,2.5,-1923625505178202e-31,0.9999999999999998
-0.346875,1,2.5,4137268893135729e-31,0.9999999999999998
-0.345,0.9999999999999999,2.5,41177691214231067e-32,0.9999999999999996
-0.343125,1,2.5,29766132122351764e-32,0.9999999999999998
-0.34125,1,2.5,35496655277526533e-32,0.9999999999999998
-0.339375,1,2.5,16152074150287816e-32,0.9999999999999998
-0.33749999999999997,0.9999999999999997,2.5,8817039799667188e-32,0.9999999999999994
-0.335625,1,2.5,3896726027440701e-32,0.9999999999999998
-0.33375,1,2.5,-13602213768355953e-33,0.9999999999999998
-0.331875,0.9999999999999999,2.5,-20953945385439388e-32,0.9999999999999996
-0.32999999999999996,0.9999999999999997,2.5,-37546161387663963e-32,0.9999999999999994
-0.328125,1,2.5,-5768425098420951e-31,0.9999999999999998
-0.32625,1,2.5,-39192412070760524e-32,0.9999999999999998
-0.32437499999999997,0.9999999999999999,2.5,-32592201942571203e-32,0.9999999999999996
-0.3225,1,2.5,-34228870002449864e-32,0.9999999999999998
-0.320625,1.0000000000000002,2.5,-4565760919189592e-31,1
-0.31875,1,2.5,-6426521831614485e-32,0.9999999999999998
-0.31687499999999996,0.9999999999999999,2.5,-1756866814750736e-31,0.9999999999999996
-0.315,1.0000000000000002,2.5,-52319636661847265e-33,1
-0.313125,1.0000000000000002,2.5,-2925833773998676e-32,1
-0.31124999999999997,1,2.5,14722478917779614e-32,0.9999999999999998
-0.309375,1.0000000000000002,2.5,19743814039898383e-32,1
-0.3075,1.0000000000000004,2.5,-8586933389512542e-32,1.0000000000000002
-0.305625,1,2.5,-3614686237255764e-32,0.9999999999999998
-0.30374999999999996,0.9999999999999999,2.5,14162560583555057e-32,0.9999999999999996
-0.301875,1.0000000000000002,2.5,-2856764193964687e-32,1
-0.3,1.0000000000000002,2.5,-15707563695881663e-33,1
-0.298125,1,2.5,-12000144042263888e-32,0.9999999999999998
-0.29625,1.0000000000000002,2.5,4783153342290656e-32,1
-0.294375,1.0000000000000004,2.5,-10307942549656517e-32,1.0000000000000002
-0.2925,1,2.5,-9270017765784552e-32,0.9999999999999998
-0.29062499999999997,0.9999999999999999,2.5,8850680100959186e-32,0.9999999999999996
-0.28875,1.0000000000000002,2.5,-10483603236974266e-32,1
-0.286875,1.0000000000000002,2.5,-22152810802883543e-32,1
-0.285,1,2.5,-2701312765482891e-31,0.9999999999999998
-0.283125,1.0000000000000002,2.5,21452403845937452e-33,1
-0.28125,1.0000000000000004,2.5,1968504950538691e-31,1.0000000000000002
-0.279375,1,2.5,2842464855521579e-31,0.9999999999999998
-0.27749999999999997,0.9999999999999999,2.5,5551511913523264e-31,0.9999999999999996
-0.275625,1,2.5,4841821596534288e-31,0.9999999999999998
-0.27375,1,2.5,6259078213474512e-31,0.9999999999999998
-0.271875,0.9999999999999999,2.5,38464983366583217e-32,0.9999999999999996
-0.27,1,2.5,2899740156159227e-31,0.9999999999999998
-0.268125,1,2.5,2369527602609487e-31,0.9999999999999998
-0.26625,0.9999999999999998,2.5,7416146045269493e-32,0.9999999999999996
-0.26437499999999997,0.9999999999999997,2.5,-6418491500407579e-32,0.9999999999999994
-0.2625,0.9999999999999999,2.5,27442251132641012e-33,0.9999999999999996
-0.260625,1,2.5,-17620509768880802e-32,0.9999999999999998
-0.25875,0.9999999999999999,2.5,-23923953553983073e-32,0.9999999999999996
-0.25687499999999996,0.9999999999999997,2.5,-5289254759186506e-31,0.9999999999999994
-0.255,1,2.5,-6265724999763885e-31,0.9999999999999998
-0.253125,1,2.5,-43809554808468016e-32,0.9999999999999998
-0.25125,0.9999999999999999,2.5,-37290503474214975e-32,0.9999999999999996
-0.249375,1,2.5,-3898390129283201e-31,0.9999999999999998
-0.2475,1.0000000000000002,2.5,-5043005019485344e-31,1
-0.24562499999999998,1,2.5,-13679959891971736e-32,0.9999999999999998
-0.24374999999999997,0.9999999999999999,2.5,-3015365209154412e-31,0.9999999999999996
-0.241875,1.0000000000000002,2.5,-14491249194699018e-32,1
-0.24,1.0000000000000002,2.5,-14553496044385386e-32,1
-0.23812499999999998,1,2.5,57462618138517e-30,0.9999999999999998
-0.23625000000000002,1.0000000000000002,2.5,26364686718077306e-32,1
-0.234375,1.0000000000000004,2.5,2025270955601038e-31,1.0000000000000002
-0.23249999999999998,1,2.5,2849568803914957e-31,0.9999999999999998
-0.23062499999999997,0.9999999999999999,2.5,5562941773167153e-31,0.9999999999999996
-0.22875,1,2.5,4855549156182488e-31,0.9999999999999998
-0.226875,1,2.5,6275408645492873e-31,0.9999999999999998
-0.22499999999999998,0.9999999999999999,2.5,38647341655988677e-32,0.9999999999999996
-0.22312500000000002,1,2.5,2920940482674779e-31,0.9999999999999998
-0.22125,1,2.5,2394967612787226e-31,0.9999999999999998
-0.219375,0.9999999999999998,2.5,8003053490268535e-32,0.9999999999999996
-0.21749999999999997,0.9999999999999997,2.5,-5691550297657776e-32,0.9999999999999994
-0.215625,0.9999999999999999,2.5,34033427959936514e-33,0.9999999999999996
-0.21375,1,2.5,-1708387259003409e-31,0.9999999999999998
-0.21187499999999998,0.9999999999999999,2.5,-23510822173292735e-32,0.9999999999999996
-0.20999999999999996,0.9999999999999997,2.5,-52686740803315e-29,0.9999999999999994
-0.208125,1,2.5,-6242064214910281e-31,0.9999999999999998
-0.20625,1,2.5,-43381700888188986e-32,0.9999999999999998
-0.20437499999999997,0.9999999999999999,2.5,-3661642166763437e-31,0.9999999999999996
-0.2025,1,2.5,-37868385809051624e-32,0.9999999999999998
-0.200625,1.0000000000000002,2.5,-4910236653902777e-31,1
-0.19874999999999998,1,2.5,-766827968016714e-31,0.9999999999999998
-0.19687499999999997,0.9999999999999999,2.5,-18845100701851054e-32,0.9999999999999996
-0.195,1.0000000000000002,2.5,-5612981013087132e-32,1
-0.193125,1.0000000000000002,2.5,-3054189890101275e-32,1
-0.19124999999999998,1,2.5,1475236668808053e-31,0.9999999999999998
-0.18937500000000002,1.0000000000000002,2.5,19914256600432162e-32,1
-0.1875,1.0000000000000004,2.5,-7635677577038636e-32,1.0000000000000002
-0.18562499999999998,1,2.5,-26281800781059627e-34,0.9999999999999998
-0.18374999999999997,0.9999999999999999,2.5,24999133437500927e-32,0.9999999999999996
-0.181875,1.0000000000000002,2.5,28959176557276953e-32,1
-0.18,1.0000000000000002,2.5,8220765596733125e-31,1
-0.17812499999999998,1,2.5,2120523405917667e-30,0.9999999999999998
-0.17625,1.0000000000000002,2.5,5558394717908357e-30,1
-0.17437499999999995,1.0000000000000004,2.5,1323909178061927e-29,1.0000000000000002
-0.17249999999999982,1,2.5,31021890894968803e-30,0.9999999999999998
-0.1706249999999996,0.9999999999999999,2.5,7059445310426705e-29,0.9999999999999996
-0.16874999999999923,1.0000000000000002,2.5,15491348652792953e-29,1
-0.16687499999999833,1.0000000000000002,2.5,33095053678573406e-29,1
-0.16499999999999654,1.0000000000000004,2.500000000000001,688259058371195e-27,1.0000000000000002
-0.16312499999999305,1.000000000000002,2.5000000000000027,13928621032288175e-28,1.0000000000000018
-0.1612499999999863,1.0000000000000056,2.500000000000008,27434548226658974e-28,1.0000000000000053
-0.1593749999999737,1.0000000000000153,2.500000000000023,5257908897722468e-27,1.000000000000015
-0.15749999999995096,1.0000000000000413,2.500000000000062,9801570507850779e-27,1.000000000000041
-0.15562499999991122,1.000000000000107,2.500000000000161,17755607822222158e-27,1.0000000000001068
-0.15374999999984393,1.0000000000002667,2.5000000000004006,3121619410151011e-26,1.0000000000002665
-0.15187499999973422,1.0000000000006402,2.5000000000009606,531534631000558e-25,1.00000000000064
-0.14999999999956307,1.0000000000014835,2.5000000000022253,8739225762611109e-26,1.0000000000014833
-0.1481249999993095,1.0000000000033265,2.50000000000499,13810230875426656e-26,1.0000000000033262
-0.1462499999989588,1.0000000000072278,2.5000000000108424,20823724557122358e-26,1.0000000000072276
-0.1443749999985202,1.0000000000152367,2.5000000000228555,2959637840978195e-25,1.0000000000152365
-0.14249999999806226,1.000000000031181,2.500000000046772,3875772236013238e-25,1.0000000000311808
-0.14062499999777675,1.0000000000619753,2.5000000000929634,44473361433373724e-26,1.000000000061975
-0.13874999999808546,1.0000000001196645,2.5000000001794973,3831574734803985e-25,1.0000000001196643
-0.1368749999998055,1.0000000002244365,2.5000000003366547,3961808760717288e-26,1.0000000002244362
-0.1350000000043876,1.00000000040871,2.500000000613065,-8755305179204439e-25,1.0000000004087097
-0.13312500001422883,1.000000000722063,2.500000001083095,-2840589723706065e-24,1.0000000007220629
-0.13125000003303522,1.0000000012359322,2.5000000018538984,-6594138281870041e-24,1.000000001235932
-0.12937500006615132,1.0000000020454385,2.5000000030681586,-13199403927152749e-24,1.0000000020454378
-0.12750000012068224,1.0000000032629532,2.500000004894432,-2406550216191877e-23,1.0000000032629508
-0.125625000205086,1.0000000049936133,2.5000000074904283,-40859964759532285e-24,1.0000000049936006
-0.12375000032773341,1.0000000072766981,2.500000010915082,-6521024012648514e-23,1.000000007276639
-0.12187500049388147,1.0000000099685713,2.5000000149529993,-9808036673884848e-23,1.0000000099683237
