position,density,energy,velocity,pressure
-0.598125,0.5416666666666646,2.5,0,0.5416666666666645
-0.59625,0.6234064651471283,2.5,0,0.623406465147128
-0.594375,0.7005171413057901,2.5,0,0.70051714130579
-0.5925,0.7703979942388643,2.5,0,0.7703979942388642
-0.590625,0.8311085529847111,2.5,0,0.8311085529847109
-0.58875,0.8815041529654757,2.5,0,0.8815041529654755
-0.5868749999999999,0.9212867920789591,2.5,0,0.9212867920789589
-0.585,0.950955253479166,2.5,0,0.9509552534791657
-0.583125,0.9716618970637566,2.5,0,0.9716618970637563
-0.5812499999999999,0.9850022905325506,2.5,0,0.9850022905325504
-0.579375,0.9927715977876308,2.5,0,0.9927715977876305
-0.5775,0.996725201827012,2.5,0,0.9967252018270117
-0.5756249999999999,0.9983797004728115,2.5,0,0.9983797004728113
-0.57375,0.9988827280358231,2.5,0,0.9988827280358229
-0.571875,0.9989673230261186,2.5,0,0.9989673230261183
-0.57,0.9989925062791154,2.5,0,0.9989925062791153
-0.568125,0.9990578473662955,2.5,0,0.9990578473662953
-0.5662499999999999,0.9991602211432704,2.5,0,0.9991602211432702
-0.564375,0.9992861438864519,2.5,0,0.9992861438864518
-0.562340760519203,0.9994331347954996,2.499402543758329,0.0010958907816402382,0.9991951002262995
-0.5605804550454466,0.9995587392138309,2.4995520412724623,0.00010128208547464419,0.9993802328011
-0.5587528393347443,0.9996780018634499,2.4996739667935666,-0.0002440377660246039,0.9995481984375768
-0.556894380317367,0.9997814240201697,2.4997769006978836,-0.0003573894195506881,0.9996927674581233
-0.5550196380612388,0.9998631966354558,2.4998584612464914,-0.0003207762988888184,0.9998071377538297
-0.5531325562356088,0.9999207886147824,2.499916267647304,-0.00014359861111920148,0.9998878282990349
-0.5512346232749284,0.9999547170122621,2.4999504556803687,0.0001370284035208073,0.999935434750914
-0.5493397943803948,0.999968463291905,2.499964319586742,0.0003060690427885491,0.9999547771299908
-0.5474585049778332,0.9999683680363811,2.4999644380985764,0.00032921012601907216,0.9999548280472141
-0.5455847627412427,0.9999621336560076,2.4999586257584903,0.00028426775462003914,0.9999464054564603
-0.5437152514244756,0.9999573076770706,2.499954427580872,0.000199984651453986,0.9999400509143755
-0.541848142592755,0.9999599659541974,2.4999578724114118,911576804142487e-19,0.9999442194434676
-0.5399814885331842,0.9999733926096427,2.4999721755269078,-16936937716034628e-21,0.9999634534545998
-0.5381144989422038,0.9999970973254301,2.4999967730328976,-0.00011924216957008097,0.9999970256664535
-0.5362453796326843,1.0000265941721667,2.5000271002448335,-0.00018262150632236912,1.0000386323055648
-0.5343715733833655,1.0000540378518046,2.5000552120698374,-0.00016109559733447663,1.0000772740496602
-0.5324890482263709,1.0000695219621512,2.500071008147972,15906273007026707e-21,1.0000990395221783
-0.5305990026293321,1.0000651143704058,2.5000662257848734,0.00025995015020986896,1.0000927142924125
-0.5287167070218158,1.000045418167248,2.5000456696601647,0.00033980548999309156,1.0000647426184337
-0.5268423139700295,1.0000215994959345,2.500020952654822,0.0002957528476496045,1.0000308273195124
-0.5249717056231442,1.0000037821812322,2.5000023922485464,0.00019870277689317496,1.0000051577413533
-0.5231023202176754,0.9999976981031894,2.4999957599040825,8771908821580476e-20,0.9999957796766509
-0.5212325428244843,1.0000036719749383,2.5000013338946645,-924810368829905e-20,1.0000032039139497
-0.5193612544791489,1.000017586306133,2.5000148856964146,-6971410678329506e-20,1.0000217514939944
-0.5174877606165561,1.000033396431539,2.5000302180766814,-8201573649339075e-20,1.0000430525570325
-0.5156117865774185,1.000045837411883,2.5000419046900193,-38859767778082744e-21,1.0000598131620897
-0.5137332048259367,1.00005208751308,2.5000470075932104,6725156964592125e-20,1.0000681375529925
-0.5118531103990726,1.000052289893686,2.500045643572873,0.000186547551464833,1.000068259990686
-0.5099752185747574,1.0000491343638853,2.5000405998054243,0.0002215648942897747,1.0000639632925736
-0.508100224224149,1.0000466997916393,2.5000361126042048,0.0001923255221699851,1.000060950889848
-0.5062267207338387,1.0000489741861966,2.5000363052341914,0.00013656359166580245,1.000064763754689
-0.5043539047658069,1.0000584764444276,2.500043795697959,714201043546088e-19,1.000078864367014
-0.5024811080717831,1.00007532192198,2.5000587508251613,14448777935924576e-21,1.0001033417388412
-0.5006078170427207,1.0000971278027813,2.5000787997802516,-21818103492059974e-21,1.000134789105947
-0.4987336652580582,1.0001200370513073,2.5001000935029225,-22673458674974254e-21,1.0001677426926145
-0.49685853372489325,1.0001404737311006,2.5001191061146977,17775718280747067e-21,1.0001971431164398
-0.4949825188458709,1.000156406792533,2.50013392177748,0.00010305311118754773,1.0002201101491761
-0.49310606081978686,1.000167704186535,2.5001445758746996,0.00021582423855512204,1.0002364429289305
-0.4912300199093419,1.0001757819926387,2.5001526592809653,0.0003009020361388222,1.000248128471102
-0.4893550326211549,1.0001828496396377,2.5001605032269327,0.00031313589920332397,1.0002582800015418
-0.4874806072409657,1.0001910426582474,2.500170269355722,0.00029984817800326693,1.0002699176175087
-0.4856064552384738,1.0002017009525752,2.5001832063125775,0.0002777569880642713,1.00028495108199
-0.4837323590062751,1.0002149804810732,2.5001992691519663,0.00025790772267889327,1.0003036291011176
-0.4818581828211634,1.00022988447124,2.5002171885585796,0.00024643481988673274,1.0003245775025214
-0.47998383943621736,1.0002447034459547,2.5002349729462683,0.0002481116886213354,1.000345411834198
-0.4781093189981427,1.0002576816822806,2.5002506419132247,0.00026301409184985314,1.0003636715525397
-0.4762346623091767,1.0002675599667892,2.500262809831629,0.000288045725106017,1.0003775833907151
-0.4743599511830026,1.000273816264816,2.5002709339011604,0.0003160575659779799,1.0003864018060242
-0.47248527741863466,1.0002766418320006,2.5002752714214274,0.0003374777378334779,1.0003903792299014
-0.4706106889135126,1.0002767357226228,2.50027663908642,0.0003482110138069131,1.0003904818588814
-0.46873618219824775,1.0002750127257942,2.5002760795077266,0.00035034121399730094,1.0003879839778802
-0.4668617332242076,1.0002723201481436,2.500274541070678,0.0003470241758738777,1.0003840735187446
-0.46498731047832587,1.0002692399230992,2.500272657015472,0.00034125910381811535,1.0003795752582614
-0.4631128876314019,1.0002660173786766,2.5002706699736335,0.00033520388271691585,1.0003748492909819
-0.4612384495611361,1.00026261505061,2.500268500054315,0.0003297453813357817,1.0003698625667294
-0.4593639891082405,1.0002588456922312,2.5002659035028505,0.00032534989615759865,1.0003643701425535
-0.45748950607010774,1.0002545092145039,2.5002626332837927,0.0003216186846083041,1.0003581030242914
-0.45561500445821534,1.00024947651188,2.500258533938383,0.0003179569720916671,1.000350884799312
-0.45374048936795364,1.0002437183661816,2.5002535712854033,0.0003138352442542595,1.0003426731917142
-0.45186596523471434,1.0002372947855984,2.5002478165909277,0.0003088460321491176,1.0003335469638677
-0.44999143448340245,1.0002303226101539,2.500241406359606,0.0003028045153096855,1.000323662725767
-0.448116897248556,1.0002229377578096,2.5002344969067063,0.0002957427175684389,1.0003132041558294
-0.4462423519328921,1.0002152646609321,2.500227228364517,0.00028782187971764395,1.000302340724919
-0.4443677961896992,1.0002073992226164,2.5002197054019133,0.00027925351254779737,1.000291204377996
-0.4424932276678321,1.0001994056342023,2.5002119947084456,0.00027023748842027736,1.0002798847004695
-0.4406186445187181,1.000191323043281,2.5002041340471046,0.0002609282606369809,1.000268437404989
-0.4387440455885275,1.000183176433962,2.5001961458337276,0.00025142638404513604,1.0002568987847844
-0.43686943041896914,1.0001749868614154,2.5001880493893416,0.0002417884961951213,1.0002452996418423
-0.43499479897861754,1.0001667782312336,2.500179868687885,0.00023204627594558246,1.000233674755517
-0.4331201514555563,1.0001585799542656,2.5001716350725753,0.0002222225761152773,1.0002220667585633
-0.4312454881286974,1.0001504263455305,2.500163386215294,0.0002123404484947549,1.000210525404069
-0.4293708092408544,1.0001423542178003,2.500155163145152,0.0002024283244616328,1.000199104140622
-0.427496114954344,1.0001344000102328,2.500147006903705,0.00019252126817410624,1.0001878558974868
-0.4256214053719816,1.0001265973624256,2.500138955803167,0.00018265946456247746,1.0001768294534474
-0.4237466805924512,1.0001189756397086,2.5001310438123827,0.00017288524553464864,1.0001660671631711
-0.4218719407153997,1.0001115594730416,2.5001233000958414,0.0001632388370295398,1.000155604175516
-0.41999718591559987,1.0001043690643165,2.5001157493841837,0.00015375793457415577,1.000145468822063
-0.4181224164648328,1.0000974208814708,2.5001084127301523,0.0001444775827203469,1.0001356836532178
-0.41624763271596965,1.0000907283968679,2.500101308257545,0.00013542980196557935,1.0001262666172415
-0.41437283509132083,1.000084302644641,2.5000944516655066,0.00012664367079254446,1.000117232032363
-0.41249802406507247,1.0000781525203044,2.5000878564259144,0.00011814486578302531,1.000108591202067
-0.4106232001337724,1.0000722848581205,2.5000815337390865,0.00010995613971214157,1.000100352685442
-0.40874836379923957,1.0000667043821927,2.500075492375405,0.00010209704924585762,1.0000925223317643
-0.4068735155838844,1.000061413637319,2.5000697385323787,9458247932098237e-20,1.0000851032182567
-0.40499865602436946,1.0000564129795426,2.5000642757974263,8742240245265047e-20,1.0000780956080269
-0.403123785667195,1.000051700662927,2.5000591052501275,8062208060269989e-20,1.0000714969956193
-0.40124890506544225,1.0000472730208052,2.500054225689502,7418269266483104e-20,1.00006530226064
-0.39937401478080115,1.0000431247138288,2.5000496339414022,6810198282287219e-20,1.000059503914754
-0.397499115363027,1.0000392490049848,2.500045325189928,6237451323584455e-20,1.0000540924059897
-0.39562420735907766,1.0000356380246709,2.5000412932844687,5699309486981314e-20,1.0000490564410087
-0.3937492913107606,1.0000322830007928,2.500037530991977,5194968656700852e-20,1.0000443832944266
-0.39187436774683443,1.0000291744435017,2.500034030184672,4723567201147222e-20,1.0000400590875886
-0.3899994371809245,1.0000263022867737,2.5000307819703838,4284202527916813e-20,1.0000360690314039
-0.38812450011112226,1.0000236559992617,2.500027776785377,3875906156131863e-20,1.0000323976387988
-0.3862495570086083,1.0000212246794034,2.5000250044723016,3497683617528312e-20,1.000029028915777
-0.38437460832270515,1.0000189971467393,2.5000224543611753,3148473575101384e-20,1.0000259465380892
-0.3824996544859803,1.0000169620364765,2.500020115363925,282710115464503e-19,1.0000231340171606
-0.38062469591235193,1.0000151078990736,2.5000179760851697,25322854821383416e-21,1.000020574855361
-0.3787497329956095,1.0000134233024225,2.50001602494555,2262659394985903e-20,1.0000182526882007
-0.376874766111118,1.000011896932189,2.500014250310282,20167963544537515e-21,1.000016151411026
-0.3749997956114,1.0000105176858616,2.5000126406147927,17932237121183634e-21,1.0000142552894253
-0.373124821824537,1.000009274756407,2.500011184479859,1590439841375486e-20,1.00001254905306
-0.3712498450587092,1.0000081577024214,2.5000098708103464,14069748037570593e-21,1.0000110179730322
-0.3693748656013909,1.0000071565032163,2.5000086888743063,12414094770185231e-21,1.0000096479235705
-0.3674998837192596,1.0000062615987138,2.5000076283615966,10923866437394647e-21,1.0000084254291737
-0.3656248996587835,1.0000054639151301,2.5000066794232665,9586091534461457e-21,1.0000073376983154
-0.36374991364709286,1.000004754879108,2.5000058326953694,8388506730875176e-21,1.000006372645803
-0.36187492588852027,1.0000041264232955,2.5000050793115363,7319706160671222e-21,1.0000055189057988
-0.35999993657095924,1.0000035709857997,2.500004410907922,6368828205771756e-21,1.000004765836754
-0.3581249458667389,1.000003081505293,2.500003819623381,5525512319219903e-21,1.000004103519092
-0.35624995393305287,1.0000026514128866,2.5000032980965456,477992532826724e-20,1.0000035227461128
-0.35437496091291437,1.0000022746212127,2.5000028394605525,4122804269738697e-21,1.0000030150083663
-0.35249996693619345,1.000001945511135,2.500002437335653,35454887025397193e-22,1.0000025724724693
-0.3506249721182713,1.00000165891645,2.500002085819683,30397266486611863e-22,1.000002187955696
-0.3487499765629168,1.000001410106725,2.500001779476121,25978950829002528e-22,1.000001854897466
-0.3468749803634804,1.0000011947683105,2.500001513319375,2213045797669741e-21,1.000001567328548
-0.34499998360321804,1.0000010089835993,2.5000012827971463,18788450519791353e-22,1.0000013198386217
-0.34312498635646027,1.000000849208599,2.5000010837698756,15895472123127878e-22,1.0000011075425883
-0.34124998868964795,1.0000007122492163,2.5000009124877507,1339891995582283e-21,1.0000009260461091
-0.3393749906596427,1.0000005952370319,2.500000765566329,11252600527918504e-22,1.0000007714111165
-0.3374999923164896,1.0000004956052106,2.500000639961715,9414878301694155e-22,1.000000640121809
-0.3356249937046433,1.0000004110649534,2.5000005329459105,7847670517159538e-22,1.0000005290513765
-0.3337499948631473,1.0000003395827153,2.500000442082765,6516520340003603e-22,1.0000004354295817
-0.33187499582624214,1.0000002793582925,2.500000365204698,5390402652398245e-22,1.000000356811211
-0.3299999966240412,1.0000002288038676,2.5000003003904245,4441959604105512e-22,1.000000291045577
-0.32812499728203337,1.000000186524286,2.50000024594389,36464278509602045e-23,1.000000236247595
-0.32624999782185254,1.000000151298846,2.5000002003747754,29815941141461363e-23,1.0000001907710128
-0.3243749982623899,1.0000001220648662,2.5000001623808727,2428372821997492e-22,1.0000001531842335
-0.3224999986198658,1.0000000979032773,2.5000001308327366,19702526515928355e-23,1.0000001222491077
-0.3206249989081979,1.0000000780264453,2.5000001047608866,159278407222272e-21,1.0000000969029277
-0.31874999913947927,1.000000061768339,2.5000000833458236,12831969090211766e-23,1.0000000762437609
-0.3168749993242039,1.000000048577223,2.5000000659110815,10299287621373488e-23,1.0000000595192795
-0.3149999994715942,1.0000000380108578,2.5000000519192676,8225532339703407e-23,1.0000000461190912
-0.3131249995897675,1.0000000297338396,2.5000000409704852,651189794046301e-22,1.000000035570243
-0.3112499996860959,1.0000000235165951,2.500000032802346,50591441250642936e-24,1.0000000275355545
-0.30937499976737015,1.000000019236179,2.500000027291679,3761300915818494e-23,1.000000021815086
-0.3074999998401527,1.0000000168793715,2.5000000244586382,25067711489051863e-24,1.0000000183513402
-0.30562499991138686,1.000000016548658,2.5000000244739957,11786251016147496e-24,1.0000000172388643
-0.30374999998861985,1.0000000184717235,2.5000000276705703,-3477422046629186e-24,1.0000000187387463
-0.3018750000804962,1.000000023015009,2.5000000345598385,-2207391030839956e-23,1.0000000232980593
-0.3000000001971423,1.0000000307018184,2.500000045854743,-4549093003248691e-23,1.0000000315739828
-0.2981250003508817,1.0000000422359119,2.5000000625000234,-7540263993581182e-23,1.0000000444635087
-0.2962500005568859,1.00000005853175,2.5000000857113163,-11376063041711991e-23,1.0000000631405115
-0.2943750008339199,1.0000000807520741,2.500000117023645,-16289923447624786e-23,1.0000000891015808
-0.29250000120482056,1.000000110353093,2.5000001583492004,-22573340309397577e-23,1.000000124221764
-0.2906250016979217,1.000000149136824,2.5000002120433233,-30585318025939246e-23,1.0000001708208874
-0.28875000234723774,1.0000001993093826,2.50000028097652,-40778281997291525e-23,1.0000002317404404
-0.28687500319359327,1.000000263544881,2.500000368611558,-5371988834855941e-22,1.0000003104317037
-0.28500000428527794,1.0000003450562571,2.500000479086786,-701154988517973e-21,1.0000004110570704
-0.2831250056868153,1.0000004476742042,2.5000006173069766,-9073485524383587e-22,1.0000005386058686
-0.2812500074749378,1.0000005759351516,2.500000789043014,-11644828058912085e-22,1.0000006990249999
-0.2793750097392148,1.000000735179042,2.5000010010418627,-148280855967248e-20,1.0000008993637046
-0.27750001258345336,1.0000009316570462,2.5000012611479265,-18738149683247535e-22,1.0000011479303068
-0.27562501612713386,1.0000011726495892,2.500001578436846,-23502161658058494e-22,1.0000014544595353
-0.2737500205042523,1.0000014665959533,2.5000019633628088,-292577393006672e-20,1.0000018302921108
-0.2718750258850652,1.0000018232357952,2.5000024279189197,-36174111502034004e-22,1.0000022885679414
-0.2700000324765392,1.000002253761364,2.5000029858080146,-4445085609116425e-21,1.0000028444331408
-0.2681250405106351,1.000002770977525,2.5000036526189064,-5431150188876387e-21,1.0000035152598774
-0.2662500502565381,1.0000033894645513,2.5000044460004585,-6601066546354411e-21,1.000004320875953
-0.2643750620232771,1.000004125738484,2.500005385825799,-798396736636938e-20,1.0000052838003777
-0.2625000761594503,1.0000049984082473,2.5000064943448033,-9613259822281031e-21,1.000006429484693
-0.2606250930686518,1.0000060283297705,2.500007796325133,-11525193706420972e-21,1.0000077865589756
-0.25875011322388025,1.0000072387572494,2.500009319183149,-13758185328071914e-21,1.0000093870792899
-0.25687513715113414,1.0000086554913434,2.5000110931066666,-16354745370229852e-21,1.0000112667707624
-0.2550001654382264,1.0000103070226884,2.500013151170958,-1936049688731795e-20,1.0000134652568808
-0.2531251987414003,1.0000122246670629,2.50001552944716,-2282413941911266e-20,1.0000160262627917
-0.25125023778135747,1.0000144426895445,2.500018267101314,-26796867519937613e-21,1.0000189977856146
-0.24937528336532444,1.0000169984140845,2.500021406478218,-3133365355397603e-20,1.0000224322287654
-0.24750033642827085,1.0000199323097965,2.5000249931565963,-3649682270113333e-20,1.0000263864946433
-0.24562539799327934,1.0000232880401192,2.500029075954326,-4235227065573384e-20,1.0000309220274108
-0.2437504691844569,1.0000271124554256,2.5000337068547416,-48970642894237385e-21,1.0000361047935789
-0.24187555123357257,1.000031455504527,2.5000389408191284,-56427347805988424e-21,1.000042005182354
-0.24000064547503014,1.000036370043898,2.5000448354559968,-6480244556777836e-20,1.0000486978084322
-0.2381257533467697,1.0000419115365817,2.5000514505364437,-7417899907361669e-20,1.0000562612078319
-0.23625087644519757,1.0000481376367778,2.5000588473549925,-8463706879008483e-20,1.000064777412507
-0.23437601646723444,1.0000551076647572,2.500067087950827,-9625491425061168e-20,1.000074331390726
-0.2325011752139762,1.0000628819830872,2.5000762342179748,-0.00010910752191928131,1.000085010338372
-0.23062635458400813,1.0000715212909261,2.500086346944631,-0.00012326376459864964,1.0000969028066307
-0.22875155656474253,1.0000810858558087,2.500097484826321,-0.0001387845197233564,1.0001100976550703
-0.2268767832078999,1.000091634708987,2.500109703498946,-0.00015572168016817845,1.0001246828413042
-0.2250020367201284,1.0001032248212853,2.50012305461854,-0.00017412400542202508,1.0001407440642474
-0.22312731944831807,1.0001159102515007,2.500137584976269,-0.00019403681894305722,1.0001583632643438
-0.2212526337985369,1.0001297412179566,2.500153335576416,-0.0002154988573994306,1.0001776169519156
-0.21937798224634386,1.0001447629915867,2.500170340529869,-0.00023854394005340258,1.0001985742883517
-0.21750336730712175,1.0001610144517303,2.500188625534475,-0.00026319927809140086,1.0002212947887281
-0.21562879146950492,1.0001785261134555,2.500208205662789,-0.0002894823760781852,1.0002458254800264
-0.21375425718131524,1.0001973174604293,2.500229082199972,-0.00031739057163593593,1.0002721973748738
-0.2118797669169628,1.000217393501007,2.5002512383878437,-0.00034688582752675297,1.0003004212038564
-0.2100053229407315,1.0002387406821642,2.500274634240603,-0.0003778941844004057,1.0003304825659924
-0.2081309273540682,1.0002613225431451,2.500299200965772,-0.00041029967661368894,1.0003623368898786
-0.20625658204502298,1.000285075753115,2.5003248359256114,-0.00044394124315926496,1.0003959048304565
-0.2043822886907921,1.0003099073325235,2.5003513993474615,-0.0004786182291830986,1.0004310688328102
