position,density,energy,velocity,pressure
-0.598125,0.5416666666666646,2.5,0,0.5416666666666645
-0.59625,0.6234064651471283,2.5,0,0.623406465147128
-0.594375,0.7005171413057901,2.5,0,0.70051714130579
-0.5925,0.7703979942388643,2.5,0,0.7703979942388642
-0.590625,0.8311080974521836,2.5,0,0.8311080974521834
-0.58875,0.8814999915085251,2.5,0,0.8814999915085249
-0.5868749999999999,0.9212726431389042,2.5,0,0.921272643138904
-0.585,0.9509237267871252,2.5,0,0.9509237267871251
-0.583125,0.9716071156083752,2.5,0,0.971607115608375
-0.5812499999999999,0.9849221976282624,2.5,0,0.9849221976282623
-0.579375,0.9926690999970205,2.5,0,0.9926690999970202
-0.5775,0.9966077167914348,2.5,0,0.9966077167914346
-0.5756249999999999,0.9982574338724758,2.5,0,0.9982574338724756
-0.57375,0.9987663675330466,2.5,0,0.9987663675330465
-0.571875,0.9988657972492502,2.5,0,0.9988657972492501
-0.57,0.9989113336805646,2.5,0,0.9989113336805644
-0.568125,0.9989984253986117,2.5,0,0.9989984253986115
-0.5662499999999999,0.9991201847209504,2.5,0,0.9991201847209502
-0.564375,0.9992606770672989,2.5,0,0.9992606770672987
-0.5623040354356477,0.9994202009680053,2.4993843455771017,0.0010161473548001058,0.9991745655339095
-0.5605773177119309,0.9995476742119871,2.49954187920754,7702947828248562e-20,0.9993649279686392
-0.5587612914553421,0.9996687389160529,2.4996662300860506,-0.00024463056050150894,0.9995357756319094
-0.5569067980147122,0.9997739943826651,2.4997711350835505,-0.0003599387524959062,0.9996830363919919
-0.5550308378287951,0.9998578688417868,2.4998551173870984,-0.0003277618840922051,0.9998005029491904
-0.553137632563546,0.999917269210754,2.4999151061441216,-0.0001534819311220362,0.9998838599325983
-0.5512302364507589,0.9999515814531372,2.499949834813895,0.00011879241835614299,0.9999320185155293
-0.5493296058184655,0.9999633260041512,2.499961580190823,0.00029485904754075634,0.9999484346833846
-0.5474473330301763,0.9999587837495362,2.4999569671353656,0.0003305248875430717,0.9999420358358804
-0.5455751343783712,0.999946333838816,2.4999445323997973,0.0002880966483869545,0.9999245931040455
-0.5437087743315684,0.9999347939629317,2.4999331243927396,0.00019463433829544166,0.9999084281742311
-0.5418456804151065,0.9999317171475378,2.499930269958357,7254554900330853e-20,0.9999040728800336
-0.5399833151406785,0.9999414897973877,2.4999403116687655,-5922731345927019e-20,0.9999176419716107
-0.5381203222583121,0.9999638867915278,2.4999630065868086,-0.00018073228783200431,0.999948839113022
-0.5362536144900758,0.9999937278689863,2.499993187830891,-0.0002542698672270466,0.999990476088098
-0.5343786954281815,1.0000216873380212,2.500021515667599,-0.00021741734275519217,1.0000295725976616
-0.5324882282480997,1.0000359108494405,2.500035895640443,27110528554451966e-21,1.0000495304820856
-0.5305886277765426,1.0000270485683902,2.5000264065631352,0.00031057234794498213,1.0000371047571297
-0.5287037611799489,1.0000019573913264,2.5000002686510934,0.0003778137550222582,1.000001970207791
-0.5268317161729292,0.9999752822818563,2.499972688852741,0.0002965668693456185,0.9999647341852747
-0.5249652859652825,0.9999594926462826,2.4999562232641126,0.00015975513180482652,0.9999427945533697
-0.5231006285340516,0.9999608627682971,2.499957114205001,3233564445994557e-21,0.9999448674846645
-0.5212347700201874,0.9999783125279018,2.4999742580297326,-0.00012257092509350488,0.9999694228635432
-0.5193656763493768,1.0000048593615631,2.50000066273369,-0.00019113765790346385,1.0000067096696543
-0.5174919214791041,1.0000311694536865,2.500026945522923,-0.00017266330080291536,1.000043683640256
-0.5156129218657036,1.0000493291559895,2.5000450860756316,-5100319496825526e-20,1.0000692562222764
-0.5137294118292471,1.0000552279450763,2.5000508871497282,0.00013200894209227992,1.0000776437562566
-0.5118455425776982,1.000049381888777,2.5000449022637685,0.00024776689871036325,1.000069551537706
-0.5099667517992066,1.0000363138076807,2.5000318694470995,0.0002698070019549463,1.0000513378858333
-0.508092887176968,1.0000226303262985,2.5000186020994484,0.00022850265646507393,1.0000322762167564
-0.5062215364225686,1.000014666381092,2.5000115128866693,0.0001562477314584448,1.000021230676513
-0.5043512494964875,1.0000163331823244,2.5000144727739615,7230822559219792e-20,1.0000236642340439
-0.5024807518718556,1.000027640801245,2.5000273382466314,-2126510979151552e-21,1.0000395818531422
-0.5006089300553581,1.0000446221267136,2.500045898706714,-44981628782167794e-21,1.0000634253420035
-0.49873487505452185,1.0000611744182444,2.500063772201148,-3572272359142115e-20,1.000086640405125
-0.49685836195849187,1.0000719665682272,2.500075385757648,24639042520993114e-21,1.000101736847688
-0.4949795838972277,1.0000743980871687,2.5000780102822753,0.00011182660055102321,1.0001050380806094
-0.493100159198015,1.000069032866185,2.5000722306160577,0.00017504020119221017,1.0000973025122761
-0.4912230835433615,1.000058890436605,2.500061232216683,0.00018685581086518705,1.0000827484437829
-0.4893488278536948,1.0000480320576728,2.50004928449005,0.00016167545527918386,1.0000670652397965
-0.48747573629194596,1.0000400563417113,2.500040149709555,0.00011889091877203729,1.0000553013017497
-0.4856030196727583,1.0000370042985485,2.500035970072232,7455356332452422e-20,1.0000503430249932
-0.48373013275054216,1.0000388948482197,2.50003678849552,3474358568036194e-20,1.0000522647034078
-0.48185665817138745,1.000044042402863,2.5000408798253093,978608771895984e-20,1.0000587679952913
-0.4799822515918617,1.0000500362801732,2.500045764851571,4963311163921662e-21,1.0000665431400857
-0.4781067842712633,1.0000549042148774,2.5000494095772177,23811396563439733e-21,1.0000728879397431
-0.47623016150899344,1.0000578569409955,2.5000509972445424,7468919435366627e-20,1.0000767436395288
-0.47435290019236914,1.0000594162209637,2.5000510675461243,0.00013612642287774509,1.0000788705291763
-0.4724766644194752,1.000061058645582,2.5000511557543836,0.0001522648062066679,1.0000813459472144
-0.4706019220750623,1.000064573554397,2.500053121238112,0.00013237255121385615,1.0000866628304836
-0.46872784459240036,1.0000713746865248,2.5000584321493045,0.0001022925756466392,1.0000967669598753
-0.46685397579102267,1.000081985453615,2.500067646691516,7205280621106508e-20,1.0001123428250616
-0.4649800426385664,1.0000958537350757,2.500080230066926,4812963706538476e-20,1.0001325605974527
-0.4631058448841853,1.0001115554059197,2.500094771137668,3755498151326419e-20,1.000155367126139
-0.4612312578316477,1.0001273300115614,2.5001095371434188,45364199087180574e-21,1.000178241733015
-0.4593562287934052,1.0001417220922382,2.500123128592785,7654481007005035e-20,1.0001990999479156
-0.45748079780846845,1.0001540019971076,2.500134899490158,0.00013238423215832467,1.000216887369188
-0.4556052381908754,1.0001642356252376,2.5001450118673136,0.00019799347145530761,1.0002316797341402
-0.45372994753143037,1.000173096225335,2.5001542220133652,0.00024464855745059033,1.0002444188660902
-0.45185508203904806,1.0001815315167977,2.5001635221338243,0.0002623808622313958,1.0002564442131157
-0.44998053904467733,1.0001903970214523,2.500173755454476,0.0002597311213925371,1.0002689755713587
-0.44810612616076767,1.0002001588970444,2.500185311935737,0.0002518807873498987,1.0002826920645351
-0.4462317422729474,1.000210745609463,2.5001979866501784,0.0002450761779333865,1.0002975194954857
-0.44435731731141354,1.000221586895727,2.5002110404872826,0.00024338288829822336,1.0003126807413412
-0.44248281640269943,1.0002318308757563,2.500223451688897,0.0002488323297427255,1.0003269970173858
-0.44060823951945743,1.000240653677125,2.500234262882816,0.0002612858340748095,1.0003393208966325
-0.43873360908144066,1.0002475032509162,2.5002428471342792,0.0002786568316363956,1.0003488795425879
-0.43685897107631516,1.0002521908003161,2.5002490016949945,0.0002955272566020389,1.000355404752206
-0.4349843634622055,1.0002548587195366,2.500252904084105,0.00030771819619302093,1.0003590901805919
-0.4331097997774161,1.0002558738297436,2.5002549853779,0.000314092066501869,1.0003604440168894
-0.4312352735225162,1.0002556903926387,2.500255770726274,0.00031604221718829143,1.0003600990813422
-0.4293607718313898,1.0002547231624628,2.500255732728379,0.0003151855233300522,1.000358636451997
-0.4274862805664567,1.0002532615735444,2.5002551932921073,0.00031292563896407705,1.0003564658069435
-0.42561178852710296,1.0002514416109096,2.5002542931392173,0.00031026949338380425,1.0003537852978353
-0.42373728978770814,1.0002492732193142,2.500253026556288,0.00030761800503696337,1.0003506178671182
-0.4218627820377284,1.0002466994860764,2.5002513130816024,0.00030514237518026815,1.0003468915381322
-0.419988264392337,1.000243654835277,2.5002490668582418,0.0003027887090065608,1.0003425190346271
-0.41811373826074566,1.0002401013728346,2.5002462389055937,0.0003002378446901316,1.000337448095956
-0.416239205012205,1.0002360408318478,2.500242829621588,0.000297266967441133,1.0003316788839698
-0.41436466570661784,1.0002315097235597,2.5002388813422947,0.0002937124805438127,1.0003252584739346
-0.41249012071909136,1.0002265658695073,2.5002344610499714,0.0002894942890932414,1.0003182634017251
-0.41061556957665146,1.0002212734562181,2.5002296418565355,0.0002846346101059501,1.000310779913192
-0.4087410112877827,1.00021569157407,2.5002244891959693,0.0002792062000727477,1.000302888570851
-0.40686644467109073,1.000209868331692,2.500219054148952,0.00027329728710837346,1.0002946560609305
-0.4049918685970415,1.0002038402769127,2.500213373398717,0.00026698893293440726,1.0002861339464892
-0.40311728212805986,1.0001976352841804,2.5002074733521424,0.0002603454617145281,1.000277362095643
-0.4012426845657028,1.000191276631519,2.5002013754735817,0.0002534140142188099,1.0002683739094815
-0.39936807543389297,1.0001847865625724,2.500195100717919,0.00024622938603895155,1.0002592011030784
-0.39749345440293055,1.0001781884714513,2.5001886720883246,0.00023882043773493605,1.0002498768074404
-0.39561882124333886,1.0001715076184268,2.500182115330822,0.0002312145918085312,1.0002404367382385
-0.39374417578158977,1.0001647707815335,2.5001754583713,0.00022344019777340582,1.0002309188577714
-0.39186951786889007,1.0001580053828347,2.500168730202846,0.00021552726907197444,1.0002213622078415
-0.3899948473732372,1.0001512385189832,2.500161959736474,0.00020750725479908784,1.0002118055154163
-0.3881201641846675,1.000144496138724,2.5001551748660282,0.00019941240868607662,1.0002022859579827
-0.38624546821820166,1.00013780250835,2.5001484018885276,0.00019127462345496825,1.0001928383177596
-0.38437075943017057,1.0001311799835666,2.500141665282483,0.00018312483014736353,1.0001834945745134
-0.382496037829916,1.0001246490131663,2.500134987741498,0.0001749928190695127,1.0001742838511651
-0.3806213034806839,1.0001182282646897,2.5001283903263003,0.00016690711581065858,1.000165232567857
-0.3787465564965216,1.0001119347727914,2.5001218926183757,0.00015889494787331413,1.0001563646647762
-0.3768717970396326,1.0001057840470136,2.500115512806405,0.00015098221217399942,1.000147701796074
-0.3749970253100756,1.000099790116782,2.500109267687993,0.00014319343356208511,1.0001392634500479
-0.3731222415387928,1.0000939655231005,2.500103172606657,0.00013555156353238287,1.0001310669945116
-0.37124744598930226,1.00008832128336,2.500097241362182,0.00012807747679061267,1.0001231276727307
-0.3693726389535946,1.0000828668588218,2.5000914861333223,0.00012078963938048115,1.0001154585843948
-0.3674978207489816,1.0000776101474835,2.5000859174407246,0.0001137039055646366,1.000108070681655
-0.3656229917154395,1.0000725575133964,2.500080544161777,0.00010683347215225918,1.0001009727985537
-0.36374815221371976,1.0000677138530252,2.5000753735950605,0.00010018887444978756,1.000094171720705
-0.3618733026189268,1.0000630826913792,2.5000704115623256,9377807890818455e-20,1.0000876722923102
-0.3599984433220631,1.0000586662968334,2.500065662531833,8760685649860725e-20,1.0000814775517075
-0.3581235747267575,1.0000544658037187,2.5000611297482114,8167905602106508e-20,1.0000755888851731
-0.35624869724584834,1.0000504813346027,2.5000568153583838,7599679099229262e-20,1.0000700061902557
-0.3543738112987995,1.0000467121178624,2.500052720528705,705605566822394e-19,1.0000647280427213
-0.3524989173095782,1.0000431566001224,2.500048845553794,6536930088360318e-20,1.0000597518646757
-0.3506240157018556,1.0000398125556893,2.5000451899610767,60420529514001556e-21,1.0000550740937628
-0.34874910690044814,1.000036677195924,2.5000417526160605,5571017114052116e-20,1.0000506903541435
-0.3468741913308407,1.0000337472811116,2.500038531832658,5123249874871633e-20,1.0000465956297488
-0.3449992694176767,1.000031019236434,2.500035525491371,46980128439784735e-21,1.0000427844398363
-0.3431243415844331,1.0000284892723963,2.500032731166183,4294403418767915e-20,1.000039251016186
-0.3412494082530107,1.000026153509157,2.5000301462593386,391136059705169e-19,1.0000359894810629
-0.3393744698416312,1.0000240081037355,2.5000277681422673,3547662496367635e-20,1.0000329940253172
-0.3374995267664197,1.000022049378603,2.5000255943001477,32019402006731675e-21,1.000030259085792
-0.33562457944190643,1.0000202739499946,2.5000236224773427,28726892483220576e-21,1.0000277795210706
-0.3337496282811382,1.0000186788544327,2.5000218508213257,2558274169362984e-20,1.0000255507847005
-0.33187467369647616,1.0000172616722889,2.500020278023066,2256931314709335e-20,1.0000235690951567
-0.3299997161009733,1.0000160206476445,2.500018903452695,19667681838667273e-21,1.0000218316021123
-0.32812475590838286,1.0000149548042716,2.5000177272898796,16857671156453152e-21,1.0000203365489306
-0.32624979353528094,1.0000140640577164,2.500016750648722,14117814043295036e-21,1.0000190834313343
-0.32437482940412465,1.0000133493234211,2.5000159756969595,11425267521510954e-21,1.0000180731520054
-0.3224998639450376,1.0000128126207395,2.5000154057692128,8755786654295256e-21,1.0000173081707324
-0.32062489759814167,1.0000124571725546,2.5000150454738015,60837078871312175e-22,1.000016792649448
-0.3187499308162864,1.0000122875000443,2.50001490079257,3381930803081397e-21,1.0000165325912942
-0.31687496406771015,1.0000123095120779,2.5000149791730295,6219055880054874e-22,1.0000165359727093
-0.3149999978391049,1.0000125305884437,2.500015289611903,-22263915277694594e-22,1.0000168128670694
-0.3131250326382659,1.0000129596556535,2.500015842728702,-5194444636388209e-21,1.0000173755576467
-0.3112500689970731,1.0000136072537549,2.5000166508276522,-831518193898358e-20,1.000018238637255
-0.3093751074743931,1.000014485592845,2.50001772794634,-11622964898458227e-21,1.000019419092684
-0.30750014865978564,1.0000156085978682,2.500019089889176,-1515363038113213e-20,1.0000209363722348
-0.3056251931775642,1.000016991939927,2.500020754243333,-18944527864212993e-21,1.0000228124343562
-0.30375024169013737,1.0000186530517998,2.5000227403741855,-2303450886791215e-20,1.0000250717748405
-0.3018752949014298,1.0000206111247036,2.5000250693966284,-27463873614978753e-21,1.0000277414292322
-0.3000003535598325,1.0000228870829022,2.500027764118286,-322742627568187e-19,1.000030850946358
-0.2981254184613388,1.0000255035336838,2.5000308489519685,-3750849706749355e-20,1.0000344323295032
-0.29625049045210955,1.0000284846911132,2.500034349796008,-4321034165537709e-20,1.000038519942229
-0.2943755704307424,1.000031856271835,2.500038293881367,-49424210671368825e-21,1.000043150375094
-0.292500659349218,1.000035645361205,2.50004270958462,-5619477931312904e-20,1.0000483622691547
-0.2906257582149765,1.0000398802477413,2.5000476262058706,-635666294017656e-19,1.000054196091593
-0.28875086808978884,1.0000445902234012,2.5000530737100126,-7158377009953043e-20,1.0000606938583885
-0.2868759900895499,1.000049805347605,2.500059082429889,-8028920832079526e-20,1.0000678988007696
-0.28500112538299954,1.0000555561738116,2.5000656827299594,-8972461210951071e-20,1.0000758549749065
-0.28312627520527617,1.0000618734364273,2.5000729046276797,-9993058025815126e-20,1.0000846068141567
-0.2812514408475026,1.0000687876943846,2.500080777367708,-0.00011094594248907768,1.0000941986220888
-0.27937662364967164,1.0000763289254657,2.500089328941278,-0.00012280682808536915,1.0001046740019086
-0.277501824997073,1.0000845260627884,2.500098585540006,-0.00013554608738426015,1.0001160752139466
-0.2756270463131865,1.0000934064641347,2.500108570932813,-0.00014919240043945837,1.0001284424503045
-0.2737522890478569,1.0001029953071854,2.5001193057581363,-0.00016376911353970045,1.0001418130160677
-0.27187755468185615,1.0001133149064807,2.500130806728118,-0.00017929209508087856,1.0001562204070797
-0.27000284471375413,1.0001243839546627,2.50014308575129,-0.0001957685358787752,1.0001716932801983
-0.26812816063409933,1.0001362167009407,2.5001561489946016,-0.00021319616273924463,1.0001882543234524
-0.26625350392122693,1.00014882209163,2.500169995921482,-0.0002315622393898384,1.0002059190491102
-0.2643788760266652,1.0001622029077886,2.500184618354245,-0.0002508428912250489,1.0002246945498552
-0.26250427835811135,1.0001763549347724,2.500199999604481,-0.0002710029492744014,1.000244578267054
-0.2606297122859956,1.0001912661708212,2.500216113674243,-0.00029199706165931335,1.0002655567955288
-0.2587551791415196,1.0002069160250644,2.5002329244531727,-0.0003137700103079501,1.0002876046856748
-0.2568806801641259,1.0002232743835702,2.5002503847448576,-0.00033625486422184624,1.0003106831104158
-0.2550062164764672,1.0002403003641414,2.5002684348934263,-0.00035937159770803035,1.000334738168415
-0.2531317890416482,1.0002579405373857,2.500287000740905,-0.0003830241960029983,1.0003596985091436
-0.25125739860140894,1.0002761263636457,2.5003059906079264,-0.00040709673088457543,1.0003854719234309
-0.24938304562781274,1.0002947706608154,2.500325291063138,-0.00043144727289531795,1.000411940641261
-0.24750873028504303,1.0003137628831826,2.5003447611347656,-0.00045589941679585896,1.0004389551354176
-0.24563445233784473,1.0003329630656852,2.500364224627595,-0.0004802355221814014,1.0004663264630493
-0.24376021110218296,1.0003521943865419,2.500383460300462,-0.0005041858887696742,1.0004938173396505
-0.24188600539540706,1.0003712342684732,2.5004021896385957,-0.0005274162542147709,1.0005211320211498
-0.24001183353656336,1.0003898040660415,2.5004200621881703,-0.0005495273538694192,1.0005479051395
-0.23813769356009365,1.0004075565553567,2.500436637493085,-0.0005701022592723944,1.0005736882782934
-0.23626358342042625,1.0004240593436382,2.5004513615025052,-0.0005887547308622889,1.0005979314226354
-0.2343895018371476,1.0004387707057727,2.500463533517689,-0.000605358037533544,1.0006199539191762
-0.2325154460504096,1.000451001662563,2.5004722566630804,-0.0006196642382648982,1.0006388957025873
-0.23064141242940986,1.000459854854635,2.5004763607360525,-0.0006314939264079126,1.0006536351115913
-0.2287673931297099,1.0004641309940114,2.5004742864459955,-0.000640081996899048,1.0006626602575086
-0.22689337464405,1.0004622029309294,2.5004639313457897,-0.000643820400360571,1.0006638940954153
-0.22501933302505042,1.000451867919825,2.500442471042206,-0.0006394777221182586,1.000654487956737
-0.22314523637617042,1.0004301989503974,2.500406181856343,-0.0006223844290701745,1.0006306121408557
-0.22127104122904473,1.0003934262928038,2.500350303745486,-0.0005863233874696596,1.000587285951336
-0.21939669365119555,1.0003368817904015,2.5002689842127395,-0.0005234811917112051,1.0005182911359993
-0.2175221330459017,1.0002550256873455,2.5001553290273195,-0.0004251189593664385,1.0004161949693053
-0.21564729952984515,1.0001415507529698,2.500001555273329,-0.0002839946257020321,1.000272474992621
-0.2137721508835537,0.9999895312879138,2.499799208796749,-963220542054661e-19,1.0000777004854469
-0.21189662314188198,0.9997915536185238,2.4995393694882146,0.0001427015883267221,0.9998216851756087
-0.21002061884211878,0.9995397477598423,2.499212746854537,0.0004410892451713168,0.9994935026517859
-0.20814399342285264,0.9992256495097415,2.498809575165087,0.0008109034418105235,0.9990812719064381
-0.20626652842529988,0.998839876288436,2.4983192776152583,0.0012696308040373787,0.9985716963989292
