position,density,energy,velocity,pressure
-0.598125,0.5416666666666646,2.5,0,0.5416666666666645
-0.59625,0.6234064651471283,2.5,0,0.623406465147128
-0.594375,0.7005171413057901,2.5,0,0.70051714130579
-0.5925,0.7703979942388643,2.5,0,0.7703979942388642
-0.590625,0.8311086955555473,2.5,0,0.8311086955555472
-0.58875,0.8815054277572936,2.5,0,0.8815054277572933
-0.5868749999999999,0.9212911021562051,2.5,0,0.921291102156205
-0.585,0.9509648407520349,2.5,0,0.9509648407520346
-0.583125,0.9716785585048281,2.5,0,0.971678558504828
-0.5812499999999999,0.9850266858444185,2.5,0,0.9850266858444184
-0.579375,0.9928028996104485,2.5,0,0.9928028996104483
-0.5775,0.9967612234726949,2.5,0,0.9967612234726948
-0.5756249999999999,0.9984174086776368,2.5,0,0.9984174086776366
-0.57375,0.9989189325635802,2.5,0,0.99891893256358
-0.571875,0.9989993529482032,2.5,0,0.998999352948203
-0.57,0.9990187213802412,2.5,0,0.9990187213802408
-0.568125,0.9990778788949465,2.5,0,0.9990778788949463
-0.5662499999999999,0.9991749028159942,2.5,0,0.999174902815994
-0.564375,0.9992971574661578,2.5,0,0.9992971574661575
-0.5623517751264477,0.9994416066479902,2.4994126739488767,0.0011214137147883077,0.9992079660163289
-0.560581475730688,0.9995680684998302,2.4995611790782357,0.00010874988057591298,0.999393822693359
-0.5587503761886479,0.999688704933867,2.499684278968719,-0.00025111770044569523,0.9995639486049148
-0.556890782133102,0.9997937376214668,2.4997887512235484,-0.00036493754390395087,0.9997110716894813
-0.5550164103907017,0.999876933612061,2.4998715962767433,-0.0003267880804271298,0.999827668688436
-0.553131102705024,0.9999354850461328,2.4999302109411246,-0.00015023665615299526,0.9999098373023716
-0.5512359944259212,0.9999697969736221,2.4999647157226903,0.00013428886856734512,0.9999580002800488
-0.5493428893090965,0.9999833094422175,2.499978406823553,0.00031580222680925504,0.9999768951947976
-0.5474618457075027,0.9999822799781442,2.4999777700948997,0.00034538534531782227,0.9999753564408885
-0.5455876653127243,0.999974321732827,2.4999705362829587,0.0003053084668693276,0.9999640848211448
-0.5437173287349024,0.9999668968331203,2.4999641607760332,0.00022780346557050877,0.9999535308962272
-0.5418491413491026,0.9999660524459012,2.4999646191212843,0.00012374123189201012,0.9999521521972063
-0.5399814228466131,0.9999752125607673,2.4999752198032827,21197993401924957e-21,0.9999647395746418
-0.5381134236655677,0.9999943119423039,2.4999957476037804,-7633760276667694e-20,0.9999912182593643
-0.5362436637016866,1.0000195777524037,2.500022246771059,-0.0001432107884499036,1.0000263399745601
-0.5343700335479298,1.000044063272322,2.5000475535092788,-0.00013849991416796254,1.0000604149369567
-0.5324891808739246,1.0000587921321358,2.5000624019191138,3685218562534273e-21,1.0000808802408383
-0.5306015204802154,1.0000564587039897,2.5000591160971943,0.00023209963935897068,1.0000774424167302
-0.5287200099444721,1.0000410682672032,2.5000418327189395,0.00030760537565405644,1.0000557009552857
-0.5268451849308197,1.000022622984967,2.500020968577269,0.00026342772633797257,1.0000296925244148
-0.5249736101114788,1.0000102574139136,2.5000059135032524,0.00016730962426426429,1.0000121857250013
-0.5231031290327794,1.000009139411907,2.500001990015848,6089025044176855e-20,1.0000103903917013
-0.5212323912130341,1.0000195305506687,2.5000095621559812,-3257888674111227e-20,1.0000246717834993
-0.5193604980138822,1.00003765061058,2.5000249208509637,-9237684339094372e-20,1.0000497638670038
-0.5174868741760301,1.0000579436204506,2.5000425719008614,-0.0001049740561932088,1.0000779304421468
-0.5156113208869718,1.0000755376209083,2.500057712896201,-6198067611850957e-20,1.000102394735011
-0.5137338164567334,1.0000877627485432,2.500067771703101,4925707803626623e-20,1.0001194610765298
-0.5118550365188127,1.0000946272222604,2.5000728928545173,0.0002125743136338111,1.0001291814315534
-0.5099775774735439,1.000098436881203,2.5000755406434996,0.00028877514100583696,1.000134818572127
-0.5081023281200588,1.0001027831509224,2.500079430719778,0.0002791119378811328,1.0001414175212664
-0.5062282821041844,1.0001112264919134,2.500088157707249,0.00023598485123848357,1.0001539560437902
-0.5043548420325322,1.0001260391641273,2.5001039201588076,0.00018174681589406698,1.0001755824609841
-0.5024814912408841,1.0001473408943398,2.5001266611575654,0.00013413860055845166,1.0002064096960415
-0.5006078526709267,1.000172958561713,2.5001539627014,0.00010484064367955304,1.000243325188151
-0.49873370324694444,1.0001992572713339,2.5001819431361785,0.0001055534699933192,1.000281161630753
-0.4968589737456717,1.0002226527128637,2.500206849556411,0.0001394092408126963,1.0003148243982032
-0.4949837743942603,1.0002407731018708,2.50022626436993,0.00020344721099531976,1.0003409285691347
-0.4931083735260125,1.000252883675132,2.500239526969216,0.00028163050451778676,1.000358401560585
-0.4912331514254237,1.0002597165479103,2.500247522986782,0.00034343884726836116,1.0003682495631299
-0.48935833120997213,1.000262937251308,2.500252090846055,0.0003668391069073004,1.0003728114368349
-0.48748381678715913,1.0002644719110347,2.5002552898308443,0.0003676392845960191,1.0003748144480067
-0.4856094841759265,1.0002658979018109,2.5002587461807995,0.00035766434605583134,1.0003765153302242
-0.4837352154502539,1.0002680507358914,2.5002632417960085,0.00034560284704103413,1.0003791420918111
-0.4818609324814626,1.0002709285790201,2.500268632122735,0.00033636040865592937,1.0003827516746011
-0.4799865885127387,1.000273897139446,2.500274094050123,0.0003323624992566784,1.0003865076348337
-0.47811217450145393,1.0002760863497155,2.5002785816325117,0.000332700831610632,1.0003892276232744
-0.47623770208560456,1.0002767606928493,2.500281241118578,0.0003356352770256471,1.0003898991606461
-0.47436319491016693,1.0002755206905725,2.500281628210388,0.00033902229373254455,1.000387962823477
-0.4724886762419378,1.0002723422676791,2.5002797406459796,0.00034107373385755416,1.0003833710819878
-0.4706141634322043,1.0002674992640397,2.5002759196992117,0.0003407020433581355,1.0003764853564086
-0.46873966422557733,1.0002614249110495,2.500270684301982,0.0003375810939520971,1.0003678883214389
-0.4668651775833163,1.0002545675409933,2.5002645610360834,0.00033201689407983385,1.0003581874842518
-0.46499069648066854,1.00024728234631,2.5002579582912534,0.00032469377379729515,1.0003478674325539
-0.4631162116809358,1.0002397818602495,2.5002511106210186,0.0003163768369320035,1.0003372217675741
-0.46124171501394284,1.0002321442044115,2.5002440918866795,0.0003076708630498714,1.0003263632259414
-0.45936720101048845,1.0002243589043027,2.500236872729965,0.0002989081355227855,1.0003152845383727
-0.4574926673806895,1.000216381488463,2.500229387083091,0.0002901649614378121,1.000303931627523
-0.45561811423365306,1.000208175790893,2.500221582330377,0.0002813557641158796,1.000292260910147
-0.4537435429477964,1.000199736494169,2.5002134450541575,0.00027233508952118426,1.0002802701138063
-0.4518689551790033,1.0001910935675646,2.5002050051548013,0.0002629747369362668,1.0002680044122378
-0.44999435220024864,1.0001823046063247,2.5001963259599247,0.00025320805096119825,1.0002555459207443
-0.4481197345744763,1.000173441679248,2.5001874883442134,0.00024303944608907287,1.0002429955994458
-0.4462451021155871,1.0001645782641586,2.5001785753027392,0.00023253197597806747,1.0002304553851642
-0.44437045425076604,1.000155779807855,2.5001696609639303,0.00022178885036363522,1.0002180154315605
-0.4424957902846061,1.0001470991656267,2.500160805370066,0.00021092821432366817,1.0002057481501376
-0.44062110964118606,1.0001385763523278,2.5001520542727103,0.00020006225055466733,1.0001937082008168
-0.4387464119961512,1.0001302410705,2.5001434421076483,0.0001892840362346953,1.000181936259414
-0.4368716973635835,1.000122116252254,2.5001349960804413,0.00017866352211353968,1.0001704640968312
-0.4349969659776785,1.0001142212212493,2.500126739757023,0.0001682515397454922,1.0001593190301898
-0.4331222182311484,1.0001065737186505,2.5001186953129517,0.00015808477229971405,1.0001485266976466
-0.4312474546467399,1.0000991906582426,2.500110884320357,0.00014818910997596962,1.0001381119779549
-0.429372675793519,1.000092087904945,2.5001033274395468,0.00013858428288159152,1.0001280984818217
-0.42749788223993385,1.0000852795507644,2.500096043571139,0.00012928710592895645,1.0001185073054846
-0.4256230745429741,1.000078777139177,2.500089048976958,0.000120313146151216,1.0001093557164673
-0.4237482532602598,1.0000725891345918,2.5000823566892048,0.0001116772303306725,1.0001006562269048
-0.42187341891781993,1.0000667207488694,2.5000759763144202,0.00010339148546503899,1.0000924162419258
-0.41999857205902763,1.0000611740905094,2.5000699141771094,9546672580950202e-20,1.000084638249537
-0.4181237132574539,1.0000559485181173,2.50006417366202,8791285288253513e-20,1.0000773203830433
-0.41624884310472193,1.0000510410619814,2.5000587556041887,8073817955524064e-20,1.000070457146644
-0.41437396220900363,1.0000464468101384,2.500053658620936,7394909250524304e-20,1.0000640401293108
-0.4124990711892827,1.0000421592113204,2.500048879347578,6754909448023741e-20,1.0000580586058891
-0.4106241706548798,1.00003817029242,2.500044412589776,6153931768135897e-20,1.000052499991828
-0.4087492611939885,1.0000344708166942,2.500040251433927,5591844074727583e-20,1.0000473501678155
-0.4068743433917103,1.000031050419009,2.5000363873625027,5068131405604666e-20,1.0000425937165762
-0.4049994178236431,1.0000278977489718,2.5000328104089404,45819125614241844e-21,1.0000382141174553
-0.4031244850507653,1.000025000637331,2.5000295093643454,4131988720542442e-20,1.0000341939313933
-0.40124954561572945,1.0000223462872875,2.50002647202898,37169228588860415e-21,1.0000305149954747
-0.39937460004545794,1.000019921481644,2.500023685488012,3335104794475042e-20,1.0000271586330531
-0.39749964883276406,1.0000177127894536,2.500021136384221,29847516292015e-18,1.000024105872621
-0.395624692447828,1.00001570675535,2.5000188111627457,2664048040944879e-20,1.0000213376627904
-0.39374973133895214,1.0000138900591364,2.500016696271013,23712230086905115e-21,1.000018835070962
-0.391874765927976,1.0000122496395425,2.5000147783072073,21045633143539813e-21,1.0000165794566962
-0.38999979661100087,1.000010772782399,2.5000130441200397,18624280139196505e-21,1.0000145526153192
-0.38812482376042706,1.0000094471805319,2.5000114808717337,16432174836700552e-21,1.0000127368939047
-0.3862498477151052,1.0000082609748988,2.5000100760789916,14454313887598067e-21,1.000011115284254
-0.3843748687869558,1.000007202785075,2.5000088176444217,12676260231893677e-21,1.0000096714968827
-0.3824998872674868,1.0000062617347951,2.50000769388709,1108363153239309e-20,1.0000083900189853
-0.3806249034271108,1.0000054274753605,2.5000066935763123,9662184498961383e-21,1.0000072561579485
-0.3787499175149717,1.0000046902071642,2.5000058059687813,8397947317259555e-21,1.0000062560707772
-0.37687492976191456,1.0000040406983104,2.5000050208465225,7277382964923894e-21,1.0000053767802461
-0.374999940377421,1.0000034702991278,2.5000043285522717,6287359087148177e-21,1.0000046061797896
-0.3731249495492904,1.000002970951076,2.5000037200185385,5415129184984968e-21,1.0000039330288037
-0.37124995744901657,1.0000025351886006,2.500003186787101,4648845948491759e-21,1.0000033469394614
-0.3693749642319503,1.0000021561331245,2.500002721017004,3977591331473345e-21,1.0000028383560196
-0.3674999700379542,1.0000018274790468,2.500002315480442,33913700988777104e-22,1.0000023985274817
-0.36562497499258384,1.0000015434722669,2.5000019635472372,28809777032567854e-22,1.0000020194742556
-0.3637499792082651,1.0000012988832145,2.5000016591606786,24380540612269164e-22,1.0000016939504468
-0.36187498278097896,1.0000010889766922,2.5000013968080324,20552402336548496e-22,1.0000014154035235
-0.3599999857967381,1.0000009094803044,2.500001171488401,17257539315526938e-22,1.0000011779324154
-0.35812498833242556,1.0000007565527798,2.5000009786800472,14433306914283935e-22,1.0000009762448414
-0.3562499904561609,1.0000006267529107,2.5000008143083603,12022311622164079e-22,1.0000008056142164
-0.35437499222815,1.00000051700932,2.500000674714958,9972577790682455e-22,1.0000006618362298
-0.3524999937015473,1.0000004245912952,2.500000556628047,8237665051319277e-22,1.000000541185768
-0.3506249949211727,1.0000003470809107,2.500000457134022,6774036609437796e-22,1.0000004403751523
-0.34874999592597805,1.0000002823464313,2.5000003736500593,5543256428824753e-22,1.0000003565142959
-0.34687499675000927,1.0000002285168876,2.5000003038973913,4512107475860307e-22,1.0000002870730806
-0.3449999974225488,1.0000001839576835,2.5000002458750377,3651663178053464e-22,1.0000002298460307
-0.3431249979689996,1.0000001472470377,2.500000197833821,29368783309994444e-23,1.0000001829190874
-0.34124999841166265,1.0000001171533324,2.5000001582508347,2345179725250666e-22,1.0000001446384226
-0.33937499876777816,1.000000092613815,2.5000001258050553,18587539811900803e-23,1.0000001135815362
-0.3374999990519193,1.0000000727149594,2.5000000993546307,14621635254106516e-23,1.0000000885307043
-0.33562499927688727,1.0000000566746354,2.50000007791614,11412918519190268e-23,1.000000068448715
-0.33374999945358835,1.000000043826051,2.50000006064593,8836556672742657e-23,1.0000000524566937
-0.33187499959136063,1.0000000336033237,2.5000000468233736,6782496804016207e-23,1.0000000398137585
-0.32999999969828314,1.0000000255284907,2.500000035835909,51590882485994084e-24,1.00000002989832
-0.3281249997806238,1.0000000191998948,2.5000000271656284,38841406423194655e-24,1.0000000221911634
-0.3262499998432867,1.0000000142818568,2.5000000203772723,28850879045197168e-24,1.0000000162604354
-0.32437499989048924,1.0000000104954978,2.5000000151073776,21053726153331188e-24,1.0000000117484953
-0.3224999999256601,1.0000000076105375,2.500000011054408,1500627905671644e-23,1.0000000083604876
-0.3206249999515694,1.0000000054378941,2.500000007969619,103560234384701e-22,1.0000000058543983
-0.31874999997052506,1.000000003822931,2.5000000056485674,6824244583260172e-24,1.00000000403236
-0.3168749999843277,1.0000000026393965,2.500000003923353,417755054336601e-23,1.0000000027330957
-0.3149999999942491,1.000000001784133,2.50000000265579,2243396722972717e-24,1.000000001825446
-0.3131250000011204,1.0000000011725805,2.5000000017315687,8984100673294138e-25,1.0000000012028647
-0.3112500000055315,1.0000000007350747,2.500000001055501,45765630698779755e-27,1.0000000007787864
-0.3093750000079594,1.0000000004139313,2.5000000005478658,-3993747171583498e-25,1.0000000004827636
-0.30750000000870054,1.0000000001613185,2.500000000141934,-4947027309143837e-25,1.00000000025731
-0.305625000007959,0.9999999999380322,2.499999999782827,-2835502595376e-22,1.000000000055602
-0.30375000000582114,0.9999999997133601,2.4999999994279505,2125676999288543e-25,0.9999999998403233
-0.30187500000230877,0.9999999994662795,2.4999999990493564,9788178660018895e-25,0.9999999995839595
-0.29999999999736615,0.9999999991883208,2.4999999986384664,20107899020888062e-25,0.9999999992709814
-0.29812499999093806,0.999999998888498,2.499999998213725,3289820064986653e-24,0.999999998902446
-0.2962499999831183,0.9999999986007025,2.499999997831674,4761579037327832e-24,0.9999999985035648
-0.2943749999742123,0.9999999983937506,2.499999997601634,63092386142558015e-25,0.999999998134656
-0.292499999965018,0.999999998384071,2.499999997703811,7705276498234463e-24,0.9999999979057401
-0.2906249999570402,0.9999999987505759,2.499999998409937,8565409348476707e-24,0.9999999979947014
-0.28874999995275996,0.9999999997507789,2.500000000104727,8298499382551852e-24,0.99999999866851
-0.2868749999562166,1.000000001738067,2.5000000033077683,60210161796498225e-25,1.0000000003078615
-0.28499999997382963,1.0000000051814923,2.5000000086975094,4610178987776428e-25,1.0000000034369727
-0.28312500001494784,1.000000010689455,2.5000000171392527,-1017905115592074e-23,1.000000008760092
-0.28125000009070494,1.000000019038589,2.5000000297191036,-2793233713912495e-23,1.0000000172056973
-0.27937500021546435,1.0000000312091222,2.500000047786116,-55256045204997795e-24,1.0000000299787672
-0.2775000004053782,1.0000000484277303,2.500000073004781,-9470495915701587e-23,1.0000000486204919
-0.2756250006784394,1.0000000722191884,2.5000001074201235,-1487738677556269e-22,1.0000000750756082
-0.2737500010521521,1.0000001044689197,2.5000001535376737,-21926458533917126e-23,1.0000001117705652
-0.2718750015598508,1.000000147497967,2.5000002144195763,-31040724362749216e-23,1.0000001617055199
-0.27000000224943194,1.0000002041507612,2.5000002937964134,-42837307749710046e-23,1.000000228562308
-0.2681250031726305,1.0000002778947314,2.500000396192346,-5797706103154836e-22,1.0000003168296427
-0.2662500043935404,1.0000003729290359,2.5000005270588392,-7727598643718529e-22,1.0000004319452895
-0.2643750059896959,1.0000004942996974,2.500000692912204,-10175947896265823e-22,1.0000005804548218
-0.2625000080511523,1.0000006480228114,2.5000009014759876,-13272989817356742e-22,1.0000007701902642
-0.2606250106910117,1.0000008412185095,2.5000011618311024,-17164602547477512e-22,1.000001010471591
-0.25875001405587317,1.0000010822581675,2.50000148457714,-22007952278050315e-22,1.000001312332408
-0.2568750183123585,1.0000013809270112,2.5000018820087466,-2799048177755786e-21,1.0000016887689376
-0.2550000236522235,1.000001748603117,2.500002368310489,-35320424484078125e-22,1.0000021550082314
-0.2531250302974882,1.0000021984520446,2.5000029597717597,-4422868646757708e-21,1.0000027287886732
-0.25125003849513594,1.0000027456376814,2.5000036750229224,-5496103157049646e-21,1.0000034306510668
-0.24937504853719286,1.000003407550223,2.500004535291973,-67794136494141395e-22,1.0000042842430903
-0.24750006080061696,1.0000042040483397,2.5000055646753783,-830850625828452e-20,1.0000053166373395
-0.24562507570813133,1.0000051577082472,2.500006790410353,-10122147057144716e-21,1.0000065586604765
-0.2437500937424755,1.0000062940676993,2.5000082431294333,-12264357158372655e-21,1.0000080452273934
-0.24187511545539372,1.0000076418481958,2.5000099570725216,-1478512057694395e-20,1.0000098156692128
-0.24000014146717322,1.0000092331417845,2.5000119702363257,-17741278159695694e-21,1.000011914045161
-0.23812517247308984,1.0000111035613575,2.5000143244580464,-2119614841562913e-20,1.0000143894376028
-0.23625020929997936,1.0000132923549674,2.5000170654357885,-2521424756204085e-20,1.000017296224845
-0.23437525286009353,1.000015842487859,2.5000202426956006,-2986428841673825e-20,1.000020694323433
-0.23250030416326425,1.0000188006967594,2.500023909520512,-35219013817008026e-21,1.000024649385204
-0.2306253643194062,1.0000222175191962,2.5000281228583803,-4135332886281253e-20,1.0000292329261102
-0.22875043454024468,1.0000261472969232,2.500032943221688,-4834324004271866e-20,1.0000345223588545
-0.22687551612481072,1.0000306481552321,2.500038434588615,-56264963827904005e-21,1.0000406009171388
-0.22500061056210838,1.0000357819533559,2.5000446642990846,-6520247285693133e-20,1.0000475574653398
-0.2231257195282429,1.0000416141861512,2.5000517029153513,-752470150698738e-19,1.0000554861818987
-0.22125084481989146,1.0000482137979003,2.5000596239861874,-8649324113226369e-20,1.0000644860961612
-0.21937598838570788,1.0000556528505273,2.500068503625141,-9904212674863813e-20,1.00007466044932
-0.2175011523237324,1.0000640059725099,2.500078419791606,-0.00011300048402298162,1.0000861158384025
-0.2156263388504746,1.0000733495254661,2.5000894511783285,-0.0001284806019132631,1.0000989611108684
-0.2137515503250776,1.0000837604744786,2.5001016756753622,-0.00014559288269932558,1.0001133060187348
-0.21187678935214005,1.00009531498423,2.5001151684391583,-0.00016443317183983068,1.00012925966023
-0.21000205858388013,1.0001080868062637,2.5001299996683097,-0.0001850867274193963,1.0001469287559872
-0.20812736078211827,1.0001221455543858,2.500146232250703,-0.0002076223599095983,1.0001664158065824
-0.20625269875678875,1.0001375549789604,2.500163919483335,-0.00023208458668807965,1.0001878171581209
-0.20437807533190092,1.0001543713033143,2.500183103018512,-0.00025848938269390563,1.000211220921997
