position,density,energy,velocity,pressure
-0.598125,0.5416666666666646,2.5,0,0.5416666666666645
-0.59625,0.6234064651471283,2.5,0,0.623406465147128
-0.594375,0.7005171413057901,2.5,0,0.70051714130579
-0.5925,0.7703979942388643,2.5,0,0.7703979942388642
-0.590625,0.8311099587624668,2.5,0,0.8311099587624666
-0.58875,0.8815163665256337,2.5,0,0.8815163665256335
-0.5868749999999999,0.9213284154494361,2.5,0,0.9213284154494358
-0.585,0.9510495479142891,2.5,0,0.9510495479142889
-0.583125,0.971829955972741,2.5,0,0.9718299559727407
-0.5812499999999999,0.9852564107995665,2.5,0,0.9852564107995663
-0.579375,0.9931109557852114,2.5,0,0.9931109557852111
-0.5775,0.997135303309071,2.5,0,0.9971353033090707
-0.5756249999999999,0.9988355094504127,2.5,0,0.9988355094504123
-0.57375,0.9993540248514062,2.5,0,0.999354024851406
-0.571875,0.9994247239743979,2.5,0,0.9994247239743976
-0.57,0.9994128011116103,2.5,0,0.9994128011116101
-0.568125,0.9994276209199193,2.5,0,0.999427620919919
-0.5662499999999999,0.9994771623823355,2.5,0,0.9994771623823353
-0.564375,0.9995579226925203,2.5,0,0.9995579226925201
-0.5624387227755281,0.9996662667626873,2.4996219701311357,0.0018286726766476873,0.9995267753386304
-0.5605973481300036,0.9997850130160955,2.499754717846995,0.0006525644699077407,0.9996978194092051
-0.558737596124013,0.9999091826997315,2.4998868767199176,0.0001292963425957006,0.9998744429350473
-0.5568691328281892,1.000028139395506,2.5000122762853074,-9811600487295014e-20,1.0000433552875685
-0.554995838303077,1.0001326810761446,2.5001224294759496,-0.00010809937001733487,1.0001918640007432
-0.5531199430323217,1.0002160652450287,2.5002105424495475,14735788026033208e-21,1.0003104015451563
-0.5512428122913946,1.0002746795901598,2.5002729576291953,0.00021318514708069854,1.0003937614698837
-0.5493656530960805,1.0003082477713214,2.5003095209041555,0.0004077768093241594,1.000441467441729
-0.5474892425205181,1.000319549372894,2.5003232810826383,0.0005340753417419603,1.0004573965677979
-0.5456137820399578,1.000313688632535,2.5003196814584645,0.0005844444800468655,1.0004487512823372
-0.543739123533052,1.0002970574199719,2.5003054341097246,0.0005793252147050976,1.000424591549397
-0.541865045649999,1.0002761655784727,2.500287272913465,0.0005375923431362718,1.0003941754574754
-0.5399912756452987,1.0002565181926006,2.5002707805132385,0.0004801241967050404,1.000365363467448
-0.5381176040345798,1.0002417088112485,2.500259461629384,0.0004182686740846093,1.0003433259541188
-0.5362438470723624,1.000232864310736,2.5002541935393654,0.00036353434532878216,1.0003297474604989
-0.5343698329610761,1.0002285256859036,2.5002531373215287,0.000323403359667724,1.000322647388456
-0.5324954088907448,1.000224982441356,2.500252122802909,0.0003062872626683628,1.0003168431793732
-0.5306206869752517,1.0002178292459345,2.500246342859457,0.0003043801133853639,1.0003061342885475
-0.5287459081710474,1.0002057787378589,2.5002345023549988,0.000301982305299225,1.000288661653043
-0.5268711681402767,1.000189841324323,2.5002178774439936,0.0002934785792249234,1.0002657815180904
-0.5249964895657533,1.000171821713467,2.500198619924039,0.0002779369527545751,1.0002399768976906
-0.523121858470137,1.0001534827541736,2.500178802972165,0.00025689918515823466,1.000213699340091
-0.5212472462075102,1.0001361256080845,2.50015994001144,0.00023293438587578837,1.0001887844958217
-0.5193726240207146,1.000120460681762,2.500142842282595,0.00020854277682824248,1.0001662654062642
-0.5174979699179757,1.000106672939066,2.5001277052118414,0.00018556829186459675,1.0001464509747406
-0.5156232718887377,1.0000945876060925,2.5001143115729665,0.00016499165744398951,1.000129142937184
-0.5137485280924946,1.0000838584017058,2.500102258022263,0.0001470746467839672,1.0001138868170945
-0.5118737420279447,1.0000741261610597,2.500091142550641,0.00013137014994921462,1.000100187323435
-0.5099989211802779,1.0000651220285126,2.500080683007656,0.00011719797892645995,1.0000876526527496
-0.5081240744718778,1.0000567092947708,2.5000707609610613,0.00010397828143866817,1.0000760584535862
-0.5062492093337517,1.0000488729775836,2.5000614032017676,9134791413641922e-20,1.0000653417720529
-0.5043743306196922,1.0000416747049596,2.500052722994945,7923950394542892e-20,1.000055546986842
-0.5024994401532177,1.0000351945071648,2.5000448476628745,6780341785113587e-20,1.0000467517308138
-0.5006245381155779,1.000029482886657,2.5000378604594933,5726222959082917e-20,1.0000390040298905
-0.49874962374404724,1.0000245400472412,2.5000317764693607,47856022229382625e-21,1.0000322939262742
-0.49687469658863603,1.0000203203930762,2.5000265497086316,3972293883932191e-20,1.0000265576870808
-0.494999757154838,1.0000167486096296,2.500022094379502,32853506924383545e-21,1.0000216969634004
-0.4931248066512516,1.0000137371895335,2.500018307700674,2713679219146498e-20,1.0000175998294436
-0.4912498466189498,1.0000112003311876,2.5000150880013194,22409913468046208e-21,1.0000141572418946
-0.4893748788108578,1.000009062442272,2.500012345868017,18498233006008962e-21,1.0000112727603228
-0.48749990489580824,1.0000072615208004,2.50001000868668,15245186856934489e-21,1.0000088659970878
-0.4856249259442061,1.0000057487322394,2.5000080202507795,12479587698423898e-21,1.000006871562585
-0.4837499429540043,1.0000044858374,2.5000063375324166,10091297476356213e-21,1.0000052356590357
-0.48187495672741165,1.0000034419225952,2.5000049264732995,8017545055656311e-21,1.0000039121669373
-0.47999996786217225,1.0000025904102756,2.5000037580625873,6228525694283492e-21,1.000002859410606
-0.4781249767774521,1.0000019069602677,2.5000028055123376,47066797716181805e-22,1.0000020382275312
-0.47624998384124495,1.0000013684329758,2.5000020427879606,3437222018165557e-21,1.0000014113880826
-0.4743749894382172,1.0000009527051579,2.5000014442638037,23785222627138754e-22,1.0000009439711042
-0.4724999936719724,1.000000638972312,2.5000009850624223,15369775544528293e-22,1.0000006041543168
-0.4706249966661931,1.0000004081824854,2.5000006416358658,9099281305532168e-22,1.0000003639473363
-0.4687499986440385,1.0000002433784732,2.5000003923029466,4699004521144535e-22,1.0000001995979462
-0.4668749998346518,1.0000001298614112,2.5000002176216483,18336490763109435e-23,1.0000000915942062
-0.4650000004696745,1.0000000551902644,2.5000001005882835,11499861756665122e-24,1.000000024348039
-0.46312500074631546,1.0000000090730357,2.500000026701467,-8058055910375451e-23,0.9999999857073067
-0.46125000080668993,0.9999999831988896,2.499999983928354,-11988857242337915e-23,0.9999999664153183
-0.4593750007472863,0.9999999710416477,2.4999999625960645,-12703713939066867e-23,0.9999999595918796
-0.4575000006324331,0.9999999676485846,2.499999955217636,-1166333670907286e-22,0.9999999602719281
-0.4556250005006576,0.9999999694095875,2.499999956244147,-9807405103280638e-23,0.9999999649991727
-0.4537500003740554,0.9999999738043774,2.499999961745341,-7721522110396697e-23,0.9999999714633157
-0.4518750002634287,0.9999999791614043,2.4999999690783783,-57365130286403366e-24,0.9999999781995382
-0.4500000001747934,0.9999999844486664,2.4999999765850567,-4052133731654619e-23,0.9999999843539489
-0.44812500010811923,0.999999989099824,2.4999999833313202,-27218966173971094e-24,0.9999999895037583
-0.446250000059619,0.9999999928723172,2.4999999888902296,-1707367538639393e-23,0.9999999935185029
-0.4443750000257121,0.9999999957342399,2.499999993167272,-9606183992251339e-24,0.9999999964525734
-0.4425000000031905,0.9999999977755973,2.4999999962633077,-432538699033769e-23,0.999999998461297
-0.4406249999894118,0.9999999991425856,2.499999998373205,-7978079055841031e-25,0.999999999738875
-0.4387499999819066,0.9999999999934301,2.4999999997175486,14130369814718472e-25,1.0000000004771972
-0.4368749999789759,1.0000000004725633,2.500000000502282,2621767666452038e-24,1.0000000008426935
-0.4349999999789879,1.000000000698777,2.500000000899534,31258914662090015e-25,1.0000000009670074
-0.43312499998072773,1.000000000762756,2.5000000010426766,31651811113566434e-25,1.000000000946893
-0.4312499999833525,1.0000000007299643,2.5000000010295564,2919944472303711e-24,1.000000000849235
-0.42937499998630446,1.0000000006455898,2.500000000929005,25208412908312048e-25,1.0000000007177905
-0.4274999999892005,1.0000000005395064,2.500000000787565,20643823436867365e-25,1.000000000579543
-0.42562499999181547,1.0000000004304899,2.500000000635326,16137519774454775e-25,1.0000000004499134
-0.42374999999404245,1.0000000003295253,2.5000000004905587,12064329575549944e-25,1.0000000003366905
-0.4218749999958769,1.0000000002422669,2.500000000363247,8556688419661983e-25,1.000000000242828
-0.41999999999729987,1.0000000001708225,2.500000000257705,5742930379954728e-25,1.0000000001683476
-0.41812499999834196,1.0000000001150333,2.500000000174517,3624686599642364e-25,1.0000000001115945
-0.416249999999067,1.0000000000733997,2.50000000011198,21140810847229432e-26,1.0000000000700724
-0.41437499999954336,1.0000000000437383,2.5000000000671565,10970038662951862e-26,1.0000000000409808
-0.4124999999998377,1.0000000000236444,2.5000000000366285,4521178820967305e-26,1.0000000000215683
-0.410625000000004,1.000000000010802,2.5000000000170153,7515305638758675e-27,1.0000000000093474
-0.40875000000008466,1.0000000000031726,2.5000000000052944,-11882491833997014e-27,1.0000000000022145
-0.40687500000011295,0.9999999999990882,2.4999999999989644,-1975786334662964e-26,0.9999999999984925
-0.4050000000001117,0.9999999999972657,2.499999999996093,-20946291227076223e-27,0.9999999999969172
-0.40312500000009616,0.9999999999967808,2.4999999999952767,-18704491650078586e-27,0.999999999996591
-0.4012500000000759,0.9999999999970017,2.4999999999955542,-150964240722247e-25,0.9999999999969071
-0.39937500000005594,0.9999999999975285,2.4999999999963145,-113387105891619e-25,0.9999999999974882
-0.39750000000003904,0.9999999999981255,2.499999999997194,-8040877744170908e-27,0.9999999999981133
-0.3956250000000258,0.9999999999986706,2.4999999999980047,-5375412934248384e-27,0.9999999999986714
-0.3937500000000159,0.9999999999991139,2.4999999999986664,-33610377186755724e-28,0.9999999999991194
-0.39187500000000897,0.9999999999994457,2.4999999999991642,-19275627413870028e-28,0.9999999999994523
-0.39000000000000434,0.9999999999996776,2.499999999999513,-9656948832064652e-28,0.9999999999996833
-0.3881250000000015,0.9999999999998302,2.499999999999743,-3650132740880106e-28,0.9999999999998346
-0.38624999999999987,0.9999999999999244,2.4999999999998845,-22921297331551402e-30,0.9999999999999273
-0.3843749999999992,0.9999999999999777,2.4999999999999654,1464524283035167e-28,0.9999999999999796
-0.38249999999999884,1.0000000000000047,2.500000000000007,20822703745610416e-29,1.000000000000006
-0.3806249999999989,1.0000000000000162,2.500000000000024,20943504644832963e-29,1.000000000000017
-0.3787499999999991,1.0000000000000189,2.500000000000028,18123008388477505e-29,1.000000000000019
-0.37687499999999924,1.0000000000000167,2.5000000000000253,1422617875642496e-28,1.0000000000000169
-0.3749999999999995,1.0000000000000138,2.5000000000000204,10391778602836445e-29,1.0000000000000138
-0.37312499999999965,1.0000000000000102,2.5000000000000155,7134817914253464e-29,1.0000000000000102
-0.37124999999999975,1.000000000000007,2.50000000000001,4606869555510135e-29,1.0000000000000069
-0.36937499999999984,1.0000000000000047,2.5000000000000067,27778354218879397e-30,1.0000000000000044
-0.36749999999999994,1.000000000000003,2.5000000000000044,15929411165180235e-30,1.0000000000000029
-0.3656249999999999,1.0000000000000018,2.5000000000000027,8291004116246025e-30,1.0000000000000016
-0.36375,1.000000000000001,2.5000000000000013,35512856712113158e-31,1.0000000000000009
-0.36187499999999995,1.0000000000000002,2.500000000000001,921150430197372e-30,1
-0.36,1.0000000000000002,2.5000000000000004,-26071562747635826e-32,1
-0.358125,1.0000000000000002,2.5,-6291145245353144e-31,1
-0.35624999999999996,1,2.5,-10145060131312135e-31,0.9999999999999998
-0.354375,1.0000000000000002,2.5,-8102212979212212e-31,1
-0.3525,1,2.5,-8789852347744029e-31,0.9999999999999998
-0.35062499999999996,0.9999999999999999,2.5,-6335665401733676e-31,0.9999999999999996
-0.34875,1,2.5,-40674993891073516e-32,0.9999999999999998
-0.346875,1,2.5,3431387990095178e-31,0.9999999999999998
-0.345,0.9999999999999999,2.5,31920915092667714e-32,0.9999999999999996
-0.343125,1,2.5,32202255627053054e-32,0.9999999999999998
-0.34125,1,2.5,37105089576501765e-32,0.9999999999999998
-0.339375,1,2.5,15685615358864974e-32,0.9999999999999998
-0.33749999999999997,0.9999999999999997,2.5,7345642047548746e-32,0.9999999999999994
-0.335625,1,2.5,1937175518724176e-32,0.9999999999999998
-0.33375,1,2.5,-44186492708825064e-33,0.9999999999999998
-0.331875,0.9999999999999999,2.5,-2895849531388364e-31,0.9999999999999996
-0.32999999999999996,0.9999999999999997,2.5,-459085497235304e-30,0.9999999999999994
-0.328125,1,2.5,-6832140576871379e-31,0.9999999999999998
-0.32625,1,2.5,-4969844182683847e-31,0.9999999999999998
-0.32437499999999997,0.9999999999999999,2.5,-4457917783749102e-31,0.9999999999999996
-0.3225,1,2.5,-4809440954927551e-31,0.9999999999999998
-0.320625,1.0000000000000002,2.5,-6201980535362373e-31,1
-0.31875,1,2.5,-11409762598838735e-32,0.9999999999999998
-0.31687499999999996,0.9999999999999999,2.5,-27971210516580957e-32,0.9999999999999996
-0.315,1.0000000000000002,2.5,-908766041062539e-31,1
-0.313125,1.0000000000000002,2.5,-5636184324169088e-32,1
-0.31124999999999997,1,2.5,1611617875704881e-31,0.9999999999999998
-0.309375,1.0000000000000002,2.5,2139665729968991e-31,1
-0.3075,1.0000000000000004,2.5,-1146441645499347e-31,1.0000000000000002
-0.305625,1,2.5,-5264172903833214e-32,0.9999999999999998
-0.30374999999999996,0.9999999999999999,2.5,14508078162079038e-32,0.9999999999999996
-0.301875,1.0000000000000002,2.5,-4774240096841482e-32,1
-0.3,1.0000000000000002,2.5,-35681774120002915e-33,1
-0.298125,1,2.5,-15042215507799862e-32,0.9999999999999998
-0.29625,1.0000000000000002,2.5,3290276736100569e-32,1
-0.294375,1.0000000000000004,2.5,-13800357918366915e-32,1.0000000000000002
-0.2925,1,2.5,-13037549612482987e-32,0.9999999999999998
-0.29062499999999997,0.9999999999999999,2.5,8374033781446421e-32,0.9999999999999996
-0.28875,1.0000000000000002,2.5,-14645148179760833e-32,1
-0.286875,1.0000000000000002,2.5,-2767056811328392e-31,1
-0.285,1,2.5,-33725109187314865e-32,0.9999999999999998
-0.283125,1.0000000000000002,2.5,33620995507145725e-33,1
-0.28125,1.0000000000000004,2.5,3078843490535591e-31,1.0000000000000002
-0.279375,1,2.5,40864333341861596e-32,0.9999999999999998
-0.27749999999999997,0.9999999999999999,2.5,7021832515542733e-31,0.9999999999999996
-0.275625,1,2.5,5936069781845792e-31,0.9999999999999998
-0.27375,1,2.5,7268885821870255e-31,0.9999999999999998
-0.271875,0.9999999999999999,2.5,4534540507286324e-31,0.9999999999999996
-0.27,1,2.5,3436470143731833e-31,0.9999999999999998
-0.268125,1,2.5,2830318812314431e-31,0.9999999999999998
-0.26625,0.9999999999999998,2.5,8775134517859434e-32,0.9999999999999996
-0.26437499999999997,0.9999999999999997,2.5,-8225422503837348e-32,0.9999999999999994
-0.2625,0.9999999999999999,2.5,18516656712963253e-33,0.9999999999999996
-0.260625,1,2.5,-2346086895900506e-31,0.9999999999999998
-0.25875,0.9999999999999999,2.5,-3164643875675604e-31,0.9999999999999996
-0.25687499999999996,0.9999999999999997,2.5,-5985669847097869e-31,0.9999999999999994
-0.255,1,2.5,-7242504795983914e-31,0.9999999999999998
-0.253125,1,2.5,-4852885699058341e-31,0.9999999999999998
-0.25125,0.9999999999999999,2.5,-4016260347534961e-31,0.9999999999999996
-0.249375,1,2.5,-2198148188393912e-31,0.9999999999999998
-0.2475,1.0000000000000002,2.5,-8693543835477331e-32,1
-0.24562499999999998,1,2.4999999999999996,9290047440937129e-31,0.9999999999999998
-0.24374999999999997,0.9999999999999999,2.4999999999999996,15758414238519492e-31,0.9999999999999996
-0.24187499999999998,1.0000000000000002,2.4999999999999996,31304864384153137e-31,1
-0.23999999999999996,1,2.4999999999999996,4844717039313466e-30,0.9999999999999998
-0.23812499999999995,1,2.4999999999999996,7567726088301143e-30,0.9999999999999998
-0.23624999999999996,1.0000000000000004,2.5,10018102378509736e-30,1.0000000000000002
-0.23437499999999994,1.0000000000000009,2.500000000000001,11667298186485313e-30,1.0000000000000007
-0.23249999999999993,1.0000000000000018,2.5000000000000027,10943794015813126e-30,1.0000000000000016
-0.23062499999999994,1.000000000000004,2.500000000000006,4760202757109893e-30,1.0000000000000038
-0.22875000000000006,1.000000000000008,2.5000000000000124,-13183365529828811e-30,1.0000000000000078
-0.22687500000000024,1.000000000000015,2.500000000000023,-5087858601352499e-29,1.0000000000000149
-0.2250000000000006,1.0000000000000266,2.500000000000041,-1227942508846111e-28,1.0000000000000266
-0.22312500000000127,1.0000000000000444,2.5000000000000675,-2474197856376907e-28,1.0000000000000446
-0.22125000000000222,1.0000000000000713,2.500000000000108,-4500713868659899e-28,1.0000000000000715
-0.2193750000000038,1.0000000000001088,2.5000000000001634,-7605949024930513e-28,1.0000000000001095
-0.21750000000000602,1.0000000000001579,2.500000000000237,-12079352924250753e-28,1.0000000000001592
-0.2156250000000091,1.000000000000216,2.5000000000003233,-18113867446193906e-28,1.0000000000002185
-0.21375000000001293,1.000000000000274,2.500000000000409,-25648529141252116e-28,1.0000000000002784
-0.2118750000000173,1.00000000000031,2.500000000000462,-34069509337253033e-28,1.0000000000003173
-0.21000000000002142,1.0000000000002822,2.5000000000004174,-41796489626239625e-28,1.0000000000002944
-0.2081250000000239,1.0000000000001155,2.5000000000001634,-4568312529865042e-27,1.000000000000135
-0.2062500000000219,0.9999999999996877,2.499999999999515,-4016055272862514e-27,0.9999999999997176
-0.2043750000000112,0.9999999999988084,2.4999999999981886,-16229245674242796e-28,0.9999999999988519
-0.20249999999998505,0.9999999999972036,2.4999999999957723,3973751405964716e-27,0.9999999999972633
-0.20062499999993388,0.9999999999945004,2.499999999991709,14704871732038795e-27,0.9999999999945753
-0.19874999999984497,0.9999999999902307,2.4999999999853006,3312792334354568e-26,0.9999999999903109
-0.1968749999997024,0.9999999999838735,2.4999999999757785,6235446770123484e-26,0.99999999998393
-0.1949999999994884,0.9999999999749651,2.499999999962466,10581033942037596e-26,0.9999999999749327
-0.1931249999991845,0.9999999999633241,2.4999999999451252,1668076994038966e-25,0.9999999999630741
-0.1912499999987776,0.9999999999494423,2.499999999924555,247323167594522e-24,0.9999999999487391
-0.18937499999826674,0.9999999999351232,2.4999999999035536,34644263779743e-23,0.9999999999335631
-0.18749999999768716,0.9999999999244268,2.49999999988835,45530042204950285e-26,0.999999999921356
-0.18562499999714163,0.9999999999249829,2.4999999998905866,5506723465411602e-25,0.9999999999193983
-0.1837499999968297,0.9999999999497001,2.499999999929875,5889030463562214e-25,0.999999999940152
-0.1818749999970986,1.0000000000187892,2.5000000000368163,4957440108309084e-25,1.0000000000033238
-0.17999999999849708,1.0000000001619003,2.5000000002561378,15568483236701396e-26,1.0000000001381237
-0.1781250000018319,1.000000000419929,2.500000000649259,-5983724184149581e-25,1.0000000003853347
-0.17625000000821087,1.0000000008457495,2.5000000012951253,-1992308800193037e-24,1.0000000007985286
-0.1743750000190778,1.0000000015029678,2.500000002287883,-4313333378464806e-24,1.000000001443643
-0.17250000003624097,1.00000000246163,2.5000000037297414,-7908878655930594e-24,1.0000000023959648
-0.17062500006168674,1.0000000037896473,2.5000000057170806,-1314016282418779e-23,1.0000000037334056
-0.16875000009733077,1.0000000055385525,2.500000008317708,-20318572719335505e-24,1.0000000055247402
-0.1668750001446058,1.000000007722148,2.5000000115371264,-29605939438032508e-24,1.0000000078112987
-0.1650000002032639,1.0000000102865474,2.500000015271748,-4075490512741508e-23,1.0000000105802722
-0.16312500027203672,1.0000000130702056,2.50000001924734,-5322125826564391e-23,1.0000000137274625
