position,density,energy,velocity,pressure
-0.598125,0.5416666666666646,2.5,0,0.5416666666666645
-0.59625,0.6234064651471283,2.5,0,0.623406465147128
-0.594375,0.7005171413057901,2.5,0,0.70051714130579
-0.5925,0.7703979942388643,2.5,0,0.7703979942388642
-0.590625,0.8311086234669608,2.5,0,0.8311086234669606
-0.58875,0.8815047846461059,2.5,0,0.8815047846461057
-0.5868749999999999,0.9212889287143692,2.5,0,0.9212889287143691
-0.585,0.9509600063241332,2.5,0,0.950960006324133
-0.583125,0.9716701555477784,2.5,0,0.9716701555477781
-0.5812499999999999,0.9850143786606965,2.5,0,0.9850143786606963
-0.579375,0.9927871015139759,2.5,0,0.9927871015139758
-0.5775,0.9967430340947157,2.5,0,0.9967430340947154
-0.5756249999999999,0.9983983566266407,2.5,0,0.9983983566266404
-0.57375,0.9989006278694418,2.5,0,0.9989006278694417
-0.571875,0.998983145033403,2.5,0,0.9989831450334028
-0.57,0.9990054389220163,2.5,0,0.999005438922016
-0.568125,0.9990677052868022,2.5,0,0.999067705286802
-0.5662499999999999,0.9991674076332514,2.5,0,0.9991674076332511
-0.564375,0.9992914725896747,2.5,0,0.9992914725896744
-0.5623462399731112,0.9994371250416101,2.4994072753508805,0.0011070306673038963,0.9992011818577153
-0.560580961455874,0.999563055227747,2.4995560843337734,0.00010285496278763975,0.9993865087562305
-0.5587516191459142,0.9996828619612814,2.4996783509299116,-0.00024859145326282614,0.9995553249096168
-0.5568925933702693,0.9997869270040707,2.4997817905003865,-0.0003622474334777827,0.9997009128516984
-0.5550180341797444,0.9998692560314989,2.4998637545060496,-0.00032475780854046804,0.9998161523356606
-0.5531318382425532,0.9999272133467965,2.4999217987690643,-0.0001471075058476826,0.9998974038761721
-0.551235308416946,0.9999612954179241,2.4999561000166537,0.00013720179503094835,0.9999452313404031
-0.5493413247256088,0.9999749924329896,2.4999699912852775,0.00031291669753150613,0.9999644588089049
-0.5474601510284633,0.9999746190924733,2.499970022669172,0.00033893580786167746,0.99996401393756
-0.5455861840800158,0.9999678337120625,2.499963964102421,0.00029624654169622565,0.9999546571725293
-0.5437162513477329,0.9999621253524829,2.499959291092915,0.00021547743388570368,0.9999468603565717
-0.5418485983811571,0.999963524174524,2.499961961138509,0.00010859358910271429,0.9999490310329806
-0.5399814038484956,0.9999753394133909,2.499975174235253,37996235022589226e-22,0.9999657657912372
-0.538113902731356,0.9999972360921344,2.4999984631026195,-9581315764789128e-20,0.9999965744365166
-0.5362444665251527,1.000025017656265,2.5000274786124574,-0.00016056469320442963,1.0000355763557123
-0.5343707679053789,1.0000512175651253,2.5000545760735755,-0.0001468714898245452,1.0000723174792443
-0.5324891277577359,1.0000663294026704,2.500069993153123,10623237740413991e-21,1.0000934599894473
-0.5306003023800832,1.0000626839909497,2.5000657022406854,0.00024362002643334542,1.000088171824099
-0.5287184060492658,1.000044561850358,2.500046150195554,0.000320779041253673,1.0000624381705476
-0.5268437927342677,1.0000225555396554,2.500022368899533,0.0002784393103887426,1.0000311420302705
-0.5249726991370287,1.000006332052951,2.500004263759282,0.00018219489002939098,1.0000078215852035
-0.5231027588131165,1.0000014076532808,2.499997465953692,74043932586749e-18,1.0000002081890627
-0.5212324965839659,1.0000081677221468,2.5000024072865443,-2107418634813188e-20,1.0000088830239908
-0.5193609059086151,1.0000227765678436,2.500015248808009,-8157894658287427e-20,1.0000285482080538
-0.5174873505378736,1.0000395592417004,2.5000302836386608,-9527236870219369e-20,1.0000513429150415
-0.5156115922785796,1.000053570889682,2.5000425294814406,-542783215487095e-19,1.000070420533676
-0.5137335410837849,1.0000621710616004,2.5000493392409497,55074589718437035e-21,1.0000821455513271
-0.5118540431368299,1.0000655074137839,2.5000509130547877,0.0001986763965663128,1.0000867703165144
-0.5099763263992289,1.0000661040571597,2.500049893881357,0.0002502148630091181,1.0000878561362705
-0.5081011858517599,1.0000677756774152,2.500050227627787,0.00022845365979763665,1.000090744730707
-0.506227403551797,1.0000742338169688,2.5000557005611648,0.0001757104774789142,1.0001005987319997
-0.5043542618663287,1.0000877779088144,2.500068617937008,0.000116033240706382,1.0001205757627145
-0.5024811803156728,1.0001084092551764,2.5000889165633784,6218504226616304e-20,1.000150598286059
-0.5006077079522032,1.0001337271689568,2.5001140836430698,28943744694104407e-21,1.0001872185739158
-0.4987335518907648,1.0001598696550926,2.50014014757131,30271235923702458e-21,1.0002249435077646
-0.4968586226034847,1.0001831598388586,2.5001633855619665,7022843740060631e-20,1.0002585481432091
-0.49498303411142686,1.0002013282204056,2.5001815771142497,0.00014805656668208042,1.0002847957083967
-0.49310713994097966,1.000213906938793,2.500194387683995,0.0002467170065720391,1.0003029966141201
-0.4912315244195226,1.0002219697539765,2.5002030639347446,0.0003254011802113915,1.0003146464553765
-0.48935659830065087,1.0002274840999972,2.500209724568704,0.00034658186424912837,1.0003225164621588
-0.4874821064818557,1.0002325322836267,2.500216529766378,0.00034206106069049305,1.0003295583758292
-0.4856078440234141,1.0002386347553436,2.500224970962218,0.00032803050247596425,1.0003379496430695
-0.4837336485448885,1.000246347254382,2.5002354632093655,0.00031338107308397236,1.0003485207709064
-0.4818594149952628,1.0002552179413347,2.5002473294872902,0.00030349723996488305,1.0003606873174609
-0.47998507999466045,1.0002641025925947,2.5002591709343456,0.0003017036156495542,1.0003728843023296
-0.47811063406860194,1.000271695769745,2.5002694648202493,0.0003080865703951884,1.0003833059937444
-0.47623610253780224,1.0002769915909433,2.5002770703627544,0.00031990956046913573,1.0003905517871592
-0.4743615314708325,1.000279509929852,2.500281467273288,0.0003326878668912702,1.0003939454548525
-0.47248696480732383,1.000279310202965,2.5002827567854613,0.00034228692278912953,1.0003935581548475
-0.47061242996858166,1.0002768562163875,2.5002814976786505,0.00034669272452436906,1.0003900237572714
-0.4687379339043177,1.0002728069731994,2.5002784617541542,0.00034606425191736846,1.000384250384184
-0.46686346834508696,1.0002678072881324,2.5002743919223476,0.00034184764586314524,1.000377130945812
-0.46498901677384497,1.0002623360868015,2.5002698288245533,0.0003359413647116685,1.0003693328660865
-0.4631145636508155,1.0002566438521094,2.5002650418217143,0.0003296060240579212,1.0003612104453983
-0.46124009828804274,1.0002507779569743,2.500260062893397,0.00032334518001757864,1.000352837877827
-0.4593656158577213,1.0002446642918532,2.5002547861480573,0.00031703055343609545,1.0003441195566272
-0.4574911141635308,1.0002381967982241,2.5002490747792256,0.0003106434317473307,1.0003349119759453
-0.4556165942430758,1.0002312991671156,2.5002428324347195,0.0003039981154479986,1.000325109228278
-0.45374205854417493,1.000223952130351,2.5002360328752204,0.00029688072429138074,1.0003146820851048
-0.4518675094648751,1.000216193148094,2.500228717290847,0.0002891428256332477,1.0003036791826254
-0.449992948505979,1.000208099664649,2.500220973023683,0.0002807388539321251,1.0002922053019627
-0.4481183759621439,1.0001997667263036,2.5002129065792658,0.0002717224664837152,1.000280391399799
-0.44624379104229067,1.0001912872979775,2.500204620640283,0.00026221465928093327,1.0002683676680346
-0.4443691924572619,1.0001827397040488,2.5001961999510764,0.000252358700821094,1.0002562458425415
-0.4424945788552742,1.0001741831134612,2.5001877068258347,0.00024228586638196467,1.0002441122505232
-0.4406199491600213,1.000165659431487,2.5001791841088634,0.00023209623295574123,1.0002320295863618
-0.4387453027204477,1.0001571987729463,2.5001706621177138,0.0002218551407067642,1.0002200437308497
-0.4368706393614501,1.0001488256543476,2.500162166158092,0.00021160042667771315,1.000208191791778
-0.4349959592099973,1.0001405638335457,2.500153722201108,0.0002013535362415389,1.0001965085597957
-0.4331212625684369,1.0001324388416384,2.5001453596679166,0.0001911325422883417,1.0001850300461703
-0.43124654983093985,1.0001244782628154,2.5001371114724797,0.0001809631600128198,1.0001737941150262
-0.4293718213824767,1.0001167104603492,2.5001290122221507,0.00017088220846038353,1.000162839084274
-0.42749707756068483,1.0001091626540235,2.500121095696626,0.00016093584980780666,1.0001522014533335
-0.42562231866930444,1.0001018591270567,2.500113392546614,0.00015117473392820436,1.0001419137562568
-0.42374754501867884,1.0000948200302169,2.5001059287653766,0.00014164831618475662,1.0001320031377365
-0.4218727569095848,1.000088060923076,2.5000987250871716,0.00013240164702233323,1.000122490826104
-0.41999795470527274,1.0000815929480986,2.500091797173455,0.0001234707509734743,1.000113392365114
-0.4181231388527464,1.0000754234033624,2.500085156294869,0.000114880941503049,1.0001047183047744
-0.41624830986497946,1.0000695564593316,2.5000788101952973,0.00010664794849231431,1.0000964750335808
-0.4143734683096748,1.0000639938221225,2.500072763893515,9877986576379633e-20,1.000088665517123
-0.41249861478940136,1.000058735237567,2.5000670202876747,9127997626388816e-20,1.0000812898327156
-0.410623749914471,1.000053778811923,2.5000615805275745,8414808177090497e-20,1.0000743454934524
-0.4087488742844858,1.0000491211818763,2.500056444190503,7738190054311851e-20,1.000067827621288
-0.40687398849628104,1.0000447575928861,2.500051609331108,7097908585747152e-20,1.0000617290531062
-0.4049990931363817,1.0000406819450662,2.5000470724786,6493745228167751e-20,1.0000560404539054
-0.403124188777598,1.000036886848755,2.500042828636885,5925463346649289e-20,1.0000507504806688
-0.4012492759789056,1.0000333637134606,2.500038871322291,5392736477794697e-20,1.000045846010832
-0.39937435529071524,1.0000301028770076,2.500035192653683,48950948537359576e-21,1.0000413124254932
-0.3974994272355932,1.0000270937675675,2.5000317834921395,44319434181237465e-21,1.0000371339214107
-0.395624492324552,1.0000243250846963,2.5000286336178306,40024655198986816e-21,1.0000332938223913
-0.3937495510591934,1.0000217849849942,2.5000257319286923,3605595175189191e-20,1.000029774866167
-0.39187460392519446,1.0000194612608524,2.5000230666466408,3240055630259735e-20,1.0000265594524205
-0.3899996513910509,1.000017341504524,2.5000206255195954,2904398999557361e-20,1.0000236298473208
-0.38812469390643006,1.0000154132549965,2.500018396011828,25970799394812102e-21,1.0000209683503556
-0.38624973189278916,1.000013664127428,2.5000163654775553,2316446319924061e-20,1.000018557433002
-0.3843747657463839,1.0000120819251357,2.5000145213136973,20608114376150678e-21,1.0000163798575072
-0.382499795841038,1.0000106547342047,2.5000128510890245,18285289759305724e-21,1.0000144187815043
-0.38062482252662605,1.0000093710006808,2.500011342648262,16180096951609343e-21,1.0000126578510804
-0.37874984612857926,1.000008219590459,2.500009984191182,1427727849406276e-20,1.0000110812823513
-0.3768748669509357,1.0000071898332148,2.500008764329212,12562195767001144e-21,1.000009673930816
-0.3749998852725856,1.0000062715532863,2.500007672124513,11020967080162095e-21,1.0000084213483786
-0.37312490134652904,1.0000054550904065,2.5000066971166546,9640552264690333e-21,1.000007309827747
-0.3712499154074494,1.0000047313126876,2.5000058293411636,8408313436206289e-21,1.000006326433944
-0.36937492767186475,1.0000040916237216,2.5000050593432093,73120171177658285e-22,1.0000054590231175
-0.3674999383385918,1.0000035279650625,2.5000043781883328,6339872482919784e-21,1.0000046962492646
-0.36562494758924113,1.0000030328145335,2.500003777470658,548066854200074e-20,1.0000040275596869
-0.36374995558962653,1.0000025991810157,2.5000032493185644,4723727709793263e-21,1.0000034431814862
-0.3618749624870511,1.0000022205961034,2.5000027863972734,4058785578631723e-21,1.0000029341015158
-0.3599999684151003,1.0000018911025426,2.5000023819072794,34763275625029045e-22,1.0000024920414488
-0.35812497349430045,1.0000016052392655,2.500002029577766,2967625021042141e-21,1.00000210942914
-0.35624997783267953,1.0000013580228482,2.5000017236543135,2524696277197365e-21,1.0000017793669247
-0.3543749815269357,1.0000011449253343,2.500001458880769,2140242864569213e-21,1.000001495597137
-0.35249998466363697,1.0000009618491537,2.500001230476207,1807582066584242e-21,1.0000012524655226
-0.35062498731690456,1.000000805100291,2.5000010341086214,15208536363898902e-22,1.000001044883462
-0.3487499895523922,1.0000006713607148,2.500000865866877,12747171643931786e-22,1.0000008682896953
-0.3468749914287094,1.0000005576608417,2.5000007222321186,10642599696158597e-22,1.000000718612029
-0.3449999929974433,1.0000004613525777,2.5000006000495274,8850210869502891e-22,1.0000005922293909
-0.34312499430419635,1.0000003800831732,2.5000004965008906,732960650161419e-21,1.000000485934383
-0.34124999538910794,1.0000003117700609,2.5000004090781798,604510944179856e-21,1.0000003968966589
-0.339374996285943,1.0000002545769313,2.5000003355583185,4963670379687748e-22,1.0000003226278176
-0.33749999702392874,1.0000002068911231,2.5000002739790883,4055981144675822e-22,1.0000002609482734
-0.3356249976284786,1.0000001673022687,2.5000002226160047,32968173997327043e-23,1.0000002099562812
-0.3337499981214075,1.000000134582075,2.5000001799600335,2664361733660988e-22,1.0000001679991093
-0.3318749985214435,1.0000001076651006,2.500000144695953,21398343271560194e-23,1.000000133646194
-0.329999998845021,1.0000000856304874,2.5000001156814617,17065242293991398e-23,1.000000105664154
-0.3281249991052473,1.0000000676848932,2.5000000919273764,13507531182743623e-23,1.000000082993733
-0.3262499993126496,1.0000000531468645,2.5000000725793594,10612742284284674e-23,1.000000064728759
-0.32437499947657633,1.0000000414327692,2.5000000569013987,8278258335891784e-23,1.0000000500970858
-0.3224999996049921,1.000000032044303,2.500000044261183,6413360050891366e-23,1.0000000384434167
-0.32062499970458996,1.000000024557527,2.500000034117342,49395892791981907e-24,1.0000000292138709
-0.3187499997810777,1.0000000186133489,2.5000000260085575,37889472698254344e-24,1.0000000219421723
-0.3168749998391683,1.000000013909495,2.500000019544545,29031889845263786e-24,1.0000000162376153
-0.3149999998828708,1.0000000101940336,2.5000000143989856,22275659046355805e-24,1.0000000117750132
-0.3131249999153624,1.0000000072605453,2.5000000103045283,17151601532493842e-24,1.000000008286808
-0.3112499999390531,1.0000000049450908,2.5000000070500996,13295677647995627e-24,1.0000000055575768
-0.3093749999554352,1.0000000031251775,2.5000000044808,10504844486355036e-24,1.0000000034211818
-0.30749999996549127,1.000000001720835,2.5000000025005926,8641855372181675e-24,1.0000000017607482
-0.3056249999703181,1.0000000006979795,2.5000000010779533,7528174343570973e-24,1.0000000005117287
-0.30374999997123275,1.000000000074024,2.500000000254355,6917680185727786e-24,0.9999999996681392
-0.3018749999701267,0.9999999999253397,2.5000000001548695,6436418456091541e-24,0.9999999992917545
-0.2999999999696876,1.0000000003959495,2.500000000999763,5535707269574152e-24,0.9999999995238793
-0.2981249999738685,1.0000000017076573,2.5000000031172362,3413916837242573e-24,1.0000000006001994
-0.2962499999880827,1.000000004172564,2.500000006958494,-9928836486338991e-25,1.000000002869908
-0.2943750000194237,1.0000000082088436,2.5000000131163884,-9042278172492261e-24,1.0000000068200217
-0.29250000007615357,1.0000000143607288,2.500000022349053,-22227111998005165e-24,1.0000000131056317
-0.29062500016865583,1.0000000233235828,2.5000000356100798,-4232312370811386e-23,1.0000000225863084
-0.28875000030832365,1.0000000359747103,2.5000000540866614,-7111273328516563e-23,1.000000036368122
-0.28687500050759884,1.0000000534108895,2.5000000792472736,-11027643966819179e-23,1.0000000558518611
-0.285000000779503,1.0000000769941881,2.5000001129004876,-16113467637524985e-23,1.0000000827898659
-0.28312500115007255,1.0000001084070678,2.5000001572657906,-22702493909742422e-23,1.0000001193535173
-0.28125000165252373,1.0000001497169544,2.500000215055997,-31236375493897973e-23,1.0000001682128048
-0.279375002325172,1.0000002034496007,2.5000002895696083,-42194152456429356e-23,1.0000002326288728
-0.2775000032143785,1.0000002726695114,2.500000384790026,-5618000622259558e-22,1.000000316559582
-0.27562500437605303,1.0000003610663977,2.5000005054894006,-7395227219943713e-22,1.0000004247786862
-0.2737500058753826,1.0000004730493417,2.500000657338598,-9646461115875517e-22,1.000000563011226
-0.27187500779800944,1.0000006138505582,2.500000847025355,-12476317299884848e-22,1.0000007380872369
-0.27000001025111114,1.0000007896403904,2.5000010823828807,-16003358464809463e-22,1.0000009581145755
-0.2681250133548842,1.000001007654797,2.500001372531266,-20364507448701433e-22,1.000001232670045
-0.26625001725120534,1.0000012763355164,2.5000017280333546,-25715329836419804e-22,1.0000015730055705
-0.26437502210344027,1.0000016054825835,2.500002161065928,-3222748882798091e-21,1.000001992265671
-0.2625000280931512,1.0000020064205997,2.500002685607484,-4008399774462773e-21,1.000002505717558
-0.26062503544268323,1.0000024921788373,2.500003317641378,-4950334305540737e-21,1.0000031309953108
-0.25875004443295363,1.0000030776830353,2.500004075369863,-6075416091304954e-21,1.0000038883581635
-0.2568750553774073,1.000003779954209,2.5000049794309445,-7413009757531582e-21,1.0000048009612483
-0.255000068635742,1.000004618306931,2.5000060531062314,-8996703696566106e-21,1.0000058951346829
-0.2531250846207032,1.000005614537662,2.500007322506014,-10864643008942147e-21,1.0000072006643104
-0.25125010379701984,1.0000067930987862,2.50000881672478,-13060376785418536e-21,1.0000087510709477
-0.24937512669705666,1.0000081812591222,2.500010567967852,-1563197275920849e-20,1.0000105838876296
-0.24750015394415734,1.0000098092518988,2.5000126116521306,-18628708076372707e-21,1.0000127409310036
-0.24562518623192606,1.0000117104111728,2.500014986485977,-22104758944665648e-21,1.000015268558955
-0.2437502243312424,1.0000139212963193,2.500017734533737,-2611775338308031e-20,1.0000182179013315
-0.24187526909683355,1.000016481800764,2.500020901267494,-30728287963807145e-21,1.0000216450442496
-0.2400003214628023,1.0000194352402418,2.5000245356057578,-3599912582018845e-20,1.0000256111507622
-0.23812538245177434,1.0000228284179917,2.50002868993578,-41995736900237425e-21,1.0000301825130165
-0.2362504532598536,1.0000267116562545,2.5000334201032106,-4879197484661972e-20,1.000035430528276
-0.2343755351926632,1.0000311387778156,2.5000387853429547,-5646651393347066e-20,1.0000414315918154
-0.23250062967636662,1.0000361670138775,2.5000448481133333,-6510262047047714e-20,1.0000482668978143
-0.23062573826518512,1.0000418568081395,2.5000516737869862,-7478915578700536e-20,1.0000560221360677
-0.22875086264214392,1.0000482714858974,2.500059330152239,-8562037984704689e-20,1.0000647870697847
-0.22687600459949905,1.0000554767742749,2.5000678867032695,-9769493766655733e-20,1.00007465499047
-0.2250011661001013,1.0000635401705606,2.500077413717103,-0.00011110759858012402,1.0000857220437234
-0.22312634926422334,1.0000725301580295,2.500087981126241,-0.0001259471960904965,1.0000980864056406
-0.22125155630424992,1.0000825152655024,2.5000996572009107,-0.00014229687169078155,1.0001118472658566
-0.2193767895266436,1.000093562960606,2.500112507055061,-0.00016022818714621627,1.0001271035479824
-0.2175020513107313,1.0001057383580627,2.500126590984794,-0.00017979739978202214,1.0001439522763207
-0.21562734405762454,1.0001191027287677,2.5001419626494785,-0.00020104142998460375,1.0001624865110923
-0.21375267022845706,1.0001337118272917,2.5001586671288627,-0.0002239806758928485,1.0001827928453582
-0.21187803248782516,1.0001496140797728,2.5001767389082024,-0.00024862713702329556,1.0002049485203444
-0.2100034334698095,1.0001668487042066,2.500196199866997,-0.000274977185868625,1.0002290182960192
-0.20812887585568515,1.0001854438440358,2.5002170573440745,-0.00030301471337408083,1.0002550512696287
-0.20625436233880717,1.0002054147753148,2.500239302313884,-0.00033271640368516433,1.0002830778466518
