position,density,energy,velocity,pressure
-0.598125,0.5416666666666646,2.5,0,0.5416666666666645
-0.59625,0.6234064651471283,2.5,0,0.623406465147128
-0.594375,0.7005171413057901,2.5,0,0.70051714130579
-0.5925,0.7703979942388643,2.5,0,0.7703979942388642
-0.590625,0.831107978249886,2.5,0,0.8311079782498858
-0.58875,0.8814988795485592,2.5,0,0.881498879548559
-0.5868749999999999,0.9212688466995932,2.5,0,0.921268846699593
-0.585,0.9509152712570546,2.5,0,0.9509152712570543
-0.583125,0.9715924709336411,2.5,0,0.9715924709336409
-0.5812499999999999,0.9849009143134486,2.5,0,0.9849009143134484
-0.579375,0.9926421136022154,2.5,0,0.9926421136022152
-0.5775,0.9965771977491571,2.5,0,0.9965771977491569
-0.5756249999999999,0.9982262702334366,2.5,0,0.9982262702334364
-0.57375,0.9987374820802569,2.5,0,0.9987374820802568
-0.571875,0.9988414961150373,2.5,0,0.998841496115037
-0.57,0.9988928468568361,2.5,0,0.9988928468568359
-0.568125,0.9989857439319498,2.5,0,0.9989857439319496
-0.5662499999999999,0.9991122285223003,2.5,0,0.9991122285223001
-0.564375,0.9992557476248232,2.5,0,0.9992557476248229
-0.5622939630122371,0.9994174137717229,2.4993797655147394,0.0010047942263288747,0.9991698943586682
-0.5605765484746105,0.9995442302664411,2.499538217061415,7748971447799314e-20,0.9993599350019238
-0.558763710971375,0.9996647673737121,2.4996620864213535,-0.00024074022383035505,0.9995300142617193
-0.5569103916710484,0.999769784598952,2.499766666577713,-0.00035888593829429456,0.9996768503256463
-0.5550341430984997,0.9998538609100469,2.499850833775791,-0.0003312605162180963,0.9997945377813063
-0.5531392205324782,0.9999137533259355,2.4999113526553707,-0.00016061845689788984,0.999878558825058
-0.5512290870310903,0.9999484940517146,2.49994653897497,0.00011336287762170781,0.9999273185505153
-0.5493266342823455,0.9999602949560341,2.4999583498570046,0.0002975308011787883,0.9999438482070647
-0.5474439791749153,0.9999554175992109,2.499953422910703,0.00033663055538390155,0.9999370638665699
-0.5455722125796508,0.999942473242993,2.4999405372432215,0.00029310451184016154,0.9999190612621209
-0.5437068178513274,0.9999306773383899,2.4999289379227974,0.00019553973533205078,0.9999027079593845
-0.5418449949112751,0.9999279778128587,2.4999265366795496,6676385317593909e-20,0.999899069801081
-0.5399840010725857,0.9999389446298117,2.499937850021201,-7230512992453594e-20,0.9999144973298338
-0.5381222570834905,0.9999631979416156,2.49996248270162,-0.00019840320954320938,0.9999484597426235
-0.5362562927328611,0.999995066796127,2.4999947934220987,-0.0002730788764912641,0.9999930700033826
-0.534380946092404,1.0000244936015021,2.5000247292561903,-0.00022826018385078715,1.000034314524336
-0.5324879256774029,1.0000387809356672,2.5000393247827595,3137776310491773e-20,1.000054392104219
-0.530585379876434,1.0000279677736061,2.5000279646011965,0.00033034532838792586,1.000039161925177
-0.5286998207613869,0.9999995499130755,2.4999985855343114,0.0004004224894050612,0.9999992212163349
-0.5268286309689931,0.9999693011506483,2.4999675757988014,0.0003133471072939284,0.9999567817776511
-0.5249636403371412,0.9999505882736616,2.499948357851184,0.0001670027966129234,0.9999304966025961
-0.5231006317223857,0.9999501459464135,2.4999476058199637,-5721225463091018e-22,0.999929735274912
-0.5212360981105448,0.9999668367294449,2.4999641459037267,-0.00013522662559634842,0.9999529130300308
-0.5193677276913707,0.9999932148433234,2.4999905193372283,-0.00020869772355391805,0.9999896688037637
-0.5174937712342492,1.0000193433913016,2.50001671577832,-0.0001878497816878395,1.0000261493706086
-0.5156134487036325,1.0000368428369923,2.5000341901945786,-5235821200480058e-20,1.0000506340185953
-0.5137280223147808,1.0000414667442183,2.500038537328702,0.0001413191120420978,1.0000571547060275
-0.5118430248221243,1.0000340142645106,2.500030566483092,0.0002529409845663937,1.0000468179028734
-0.5099640703997771,1.0000196087693947,2.50001563995512,0.0002675835844231226,1.0000268274115534
-0.5080906880088543,1.0000055200667455,2.5000012605934425,0.00021726524873487714,1.000007373654166
-0.5062201623428494,0.9999985707074693,2.499994356203119,0.00013138682232072656,0.9999979794658779
-0.5043508092435164,1.0000027822027946,2.4999989518347303,3474142884317833e-20,1.0000042360909094
-0.5024811447030131,1.0000177802245487,2.5000145873780166,-5162441028334414e-20,1.0000255878148492
-0.5006097631763521,1.0000387880312387,2.5000363366682725,-9603761310683952e-20,1.0000553267630408
-0.498735528652834,1.0000587827912517,2.5000570027559834,-7576095474468754e-20,1.0000835997240751
-0.4968581893802631,1.0000717910117398,2.500070466368738,1390364184331504e-20,1.0001020095444775
-0.4949783183696479,1.0000750690150828,2.500073938225887,0.0001307780933848441,1.0001066784233015
-0.4930981891840187,1.0000695369473327,2.5000684267456355,0.00020343629767884523,1.0000988725709965
-0.4912209944548619,1.0000588898217448,2.5000578272965273,0.00021481413786358428,1.0000837728124903
-0.4893470220738438,1.000047896587279,2.5000470959997485,0.000184952938555074,1.0000680751126731
-0.4874743879314328,1.0000406345434596,2.5000403975712864,0.0001371262277877256,1.0000575074693605
-0.4856021440654348,1.0000392232849802,2.5000398320340174,8895483576391096e-20,1.0000550667800574
-0.4837296652085155,1.0000433155244846,2.5000449255202124,4741554066825073e-20,1.0000603046233478
-0.48185643157057184,1.000050527711161,2.5000530916368495,23723199247020626e-21,1.0000699241930349
-0.4799820369149242,1.000057651246294,2.500060896365978,24363306661550456e-21,1.0000794672896378
-0.4781063498643491,1.0000620461457719,2.500065506590276,484322972881052e-19,1.0000852583581648
-0.47622929383680823,1.0000625367612976,2.5000656300143747,912051235877315e-19,1.0000856574189914
-0.474351615964334,1.0000595932202376,2.5000617178422133,0.00012909258528726159,1.0000813168691844
-0.4724753245008505,1.0000549435582526,2.5000555779002682,0.00013303913488029505,1.0000746453744287
-0.47060079429829427,1.0000508199324174,2.5000495742345232,0.00011215487586746846,1.0000687517856695
-0.46872702281052464,1.0000491375343654,2.500045760372731,8244691038439134e-20,1.0000662984633706
-0.4668534572280309,1.0000508822838845,2.5000452494221537,5198240307723382e-20,1.000068653659856
-0.46497977571733734,1.0000558790773877,2.5000479693877073,2694636419177624e-20,1.0000755709827873
-0.4631057226979895,1.0000630152209726,2.50005288921429,1135672562028029e-20,1.0000855022390132
-0.4612311218015531,1.0000708344288947,2.500058625337536,10418165466841993e-21,1.0000964261674956
-0.459355859305235,1.0000782208613401,2.5000641363534926,30220656178707594e-21,1.0001068025672226
-0.45747990393988247,1.0000848134906322,2.500069139496734,796424876694158e-19,1.000116149037965
-0.455603659572164,1.0000910254131077,2.5000741234319914,0.00014732959384312105,1.0001250647161473
-0.45372798380311347,1.000097783948247,2.5000800717974894,0.00017919997582839953,1.0001348614295746
-0.45185310132402473,1.0001061311371702,2.5000880470083775,0.0001751985920608429,1.00014700036405
-0.44997869457320816,1.0001168164224625,2.5000987755947195,0.00015806371216099994,1.0001625201072462
-0.44810444016011697,1.0001299991480872,2.500112352355793,0.00013980572455444079,1.0001816198790106
-0.4462301712695039,1.0001451457199098,2.500128149630841,0.00012661016348084503,1.0002035169212056
-0.4443557682180097,1.0001611576117766,2.5001449655794774,0.00012398743203657168,1.000226629013578
-0.4424811678814948,1.0001767064754297,2.5001613846869035,0.0001350716697391315,1.0002490492904597
-0.4406063529230243,1.00019065092784,2.50017621615181,0.00016213305365423886,1.000269136690627
-0.4387313722223387,1.0002023262351816,2.500188790938783,0.00020294175520882283,1.0002859272787077
-0.4368563938000187,1.00021161508949,2.500199024626983,0.00024258553224390463,1.0002992367593992
-0.4349815294855083,1.0002188505542775,2.5002073024828504,0.0002724519029551322,1.000309525999927
-0.4331068285805084,1.0002246221973778,2.500214263982549,0.0002885966625043991,1.0003176290474578
-0.4312322605998817,1.0002295523512057,2.500220558805912,0.0002933370294269647,1.0003244376222866
-0.42935776314723373,1.0002341042220042,2.500226641065912,0.00029283152474283855,1.0003306290715501
-0.4274832888308021,1.000238469695476,2.500232653424081,0.0002912092720961133,1.0003365052255442
-0.4256088078582013,1.0002425628229425,2.5002384292608393,0.0002905475912817713,1.0003419789881776
-0.4237343064788006,1.0002461138571124,2.500243606862862,0.00029184552303778604,1.0003467015768661
-0.4218597848662868,1.0002488142912809,2.500247799030272,0.00029480110381064874,1.0003502617330498
-0.41998524891990135,1.0002504395480065,2.5002507333587385,0.0002984672817542931,1.0003523557814267
-0.4181107078128725,1.0002509068016152,2.500252314837533,0.0003017228165958421,1.0003528695159685
-0.41623616877467184,1.0002502719120283,2.500252617375391,0.0003037353081784329,1.0003518760149614
-0.4143616356081678,1.0002486890932056,2.5002518323729417,0.0003042025654283167,1.0003495819266977
-0.4124871075228415,1.0002463552934766,2.5002502002070703,0.0003034079656665564,1.0003462525087816
-0.41061258154425656,1.0002434579464918,2.5002479466211582,0.00030178423975026785,1.0003421410025688
-0.4087380559398397,1.0002401395748979,2.500245240043396,0.00029933827823742985,1.000337440712488
-0.40686352788711216,1.000236485444971,2.5002421773553523,0.0002962410643499734,1.00033226806086
-0.40498899469129107,1.0002325319320304,2.500238795136695,0.00029267965118867173,1.0003266734832343
-0.40311445454355743,1.000228285722734,2.5002350939815514,0.00028875586727275586,1.000320667010118
-0.4012399064702329,1.0002237435170724,2.5002310630527376,0.00028449795052808515,1.000314244668511
-0.3993653500557996,1.0002189057009025,2.5002266967779194,0.0002798935208125327,1.0003074070562816
-0.3974907851189295,1.0002137826612314,2.500222002241731,0.00027492092172883107,1.0003001682335029
-0.3956162115028042,1.00020839534681,2.5002169995106733,0.0002695681069924327,1.0002925568582888
-0.3937416289594504,1.0002027724954856,2.500211718000191,0.00026383982311400754,1.0002846126856983
-0.39186703711762394,1.0001969467988772,2.5002061917114236,0.0002577566402116101,1.0002763814372648
-0.3899924355115615,1.0001909515037555,2.500200455157137,0.00025135021084054593,1.0002679100816423
-0.388117823637026,1.000184818148457,2.5001945407677195,0.0002446576936765927,1.000259243563208
-0.3862432010016046,1.0001785755921337,2.5001884778956884,0.00023771672815508862,1.0002504232787897
-0.3843685671737367,1.0001722500718386,2.5001822930501563,0.0002305626024917802,1.0002414869794134
-0.3824939218098671,1.0001658658493986,2.500176010801916,0.00022322749886137386,1.0002324695263516
-0.38061926465602347,1.0001594460002927,2.500169654803347,0.00021574104953843353,1.000223403905668
-0.37874459553694634,1.000153013026842,2.5001632485433176,0.0002081314984313574,1.0002143220627444
-0.3768699143434978,1.000146589154675,2.5001568156801377,0.00020042679125529617,1.0002052553502883
-0.3749952210146169,1.0001401963219028,2.50015037998168,0.00019265521080490613,1.0001962345823536
-0.37312051552667636,1.00013385596051,2.5001439650105035,0.0001848453305685299,1.00018728980763
-0.3712457978953744,1.0001275886952106,2.500137593718073,0.00017702529277792582,1.000178449954263
-0.3693710681746202,1.0001214140636763,2.5001312880794595,0.00016922200539039068,1.0001697424776117
-0.36749632645750707,1.0001153503199038,2.500125068842703,0.00016146043076854002,1.000161193093483
-0.36562157287765124,1.000109414339818,2.5001189554116627,0.0001537631102304957,1.0001528256279602
-0.3637468076103595,1.000103621617724,2.500112965842662,0.0001461498817282449,1.0001446619774605
-0.36187203086806247,1.0000979863260613,2.500107116916069,0.0001386378316121156,1.0001367221517166
-0.35999724290272794,1.0000925214077778,2.5001014242416453,0.00013124157934743741,1.000129024366731
-0.35812244400265547,1.0000872386765998,2.5000959023657185,0.0001239735271475606,1.000121585160068
-0.35624763448874136,1.0000821489106146,2.5000905648622584,0.00011684402440345671,1.000114419511257
-0.35437281471152426,1.0000772619346454,2.500085424403517,0.00010986143231532222,1.0001075409607019
-0.3524979850488488,1.0000725866947247,2.5000804928160956,0.0001030321028452832,1.0001009617287582
-0.35062314590110577,1.000068131331909,2.500075781133365,9636033883880254e-20,1.000094692840696
-0.3487482976927678,1.0000639032628187,2.500071299655239,8984813603133181e-20,1.0000887442632325
-0.34687344087209687,1.0000599092721765,2.5000670580232836,8349496885189041e-20,1.000083125056023
-0.34499857590979394,1.0000561556196996,2.5000630653151394,7729766358977055e-20,1.000077843538686
-0.34312370329871206,1.0000526481608032,2.500059330158149,7125032134941458e-20,1.0000729074713466
-0.3412488235533819,1.0000493924786822,2.5000558608591272,6534431072533234e-20,1.0000683242454032
-0.339373937207677,1.0000463940244266,2.5000526655457405,59568232213595164e-21,1.0000641010810518
-0.3374990448161369,1.0000436582614156,2.500049752314243,53908044051325724e-21,1.0000602452280811
-0.3356241469541203,1.0000411908103255,2.5000471293783972,4834719224901409e-20,1.0000567641666436
-0.3337492442175057,1.000038997591626,2.500044805215299,4286669433349983e-20,1.0000536658052606
-0.33187433722306314,1.0000370849630589,2.5000427887045733,3744521353405154e-20,1.0000509586736588
-0.32999942660939247,1.0000354598502244,2.5000410892585823,3205911149787171e-20,1.0000486521084433
-0.3281245130365224,1.0000341298690163,2.500039716942017,26682541205216804e-21,1.00004675642988
-0.32624959718757535,1.0000331034387964,2.5000386825796834,21287487012246562e-21,1.0000452831079385
-0.324374679771305,1.000032389885064,2.500037997851193,1584377979206726e-20,1.0000442449153437
-0.3224997615233093,1.000031999530233,2.5000376753711975,10319179306891946e-21,1.0000436560651178
-0.3206248432076799,1.0000319437709164,2.500037728753489,4679488802108302e-21,1.0000435323297687
-0.3187499256189171,1.0000322351399333,2.5000381726571863,-1111307665523463e-21,1.0000438911390874
-0.3168750095836266,1.000032887351203,2.5000390228130613,-7090880401000007e-21,1.0000447516534967
-0.31500009596242184,1.000033915325436,2.500040296027835,-13298375383004439e-21,1.000046134809579
-0.31312518565119285,1.0000353351941496,2.5000420101638774,-19774183044888712e-21,1.0000480633338862
-0.311250279582467,1.0000371642793546,2.500044184091533,-26559684962696437e-21,1.0000505617210422
-0.3093753787264635,1.0000394210467616,2.500046837611625,-3369698969659916e-20,1.0000536561732551
-0.3075004840926721,1.0000421250305283,2.5000499913458123,-41228695919724224e-21,1.000057374498997
-0.30562559673148726,1.0000452967275775,2.5000536665924273,-491976331989897e-19,1.0000617459687526
-0.30375071773477474,1.0000489574593252,2.5000578851453517,-5764654020466712e-20,1.0000668011255793
-0.30187584823609076,1.0000531291983252,2.5000626690732553,-6661767975474784e-20,1.0000725715476773
-0.30000098940997644,1.000057834357068,2.5000680404564974,-7615238087157969e-20,1.000079089559429
-0.29812614247099983,1.0000630955371188,2.5000740210803625,-8629051223577711e-20,1.0000863878878683
-0.2962513086717688,1.0000689352374608,2.5000806320843556,-9706987201120313e-20,1.0000944992616545
-0.2943764893001424,1.0000753755205545,2.5000878935670836,-0.00010852551147098489,1.0001034559486115
-0.2925016856746322,1.0000824376344368,2.5000958241460705,-0.00012068897894236773,1.000113289227544
-0.29062689914039636,1.0000901415892864,2.5001044404718686,-0.00013358759602437743,1.0001240287904607
-0.28875213106167064,1.0000985056877578,2.5001137566966474,-0.0001472436647268704,1.00013570207332
-0.2868773828149391,1.000107546011769,2.500123783901071,-0.00016167377589898285,1.000148333519417
-0.2850026557810836,1.000117275873635,2.5001345294890447,-0.00017688830234502542,1.0001619437878624
-0.28312795135220936,1.0001277052430455,2.500145996564896,-0.00019289146426592114,1.0001765489248446
-0.28125327091498464,1.0001388401626048,2.5001581833095967,-0.00020968069912540716,1.0001921595168428
-0.27937861583712964,1.000150682158828,2.5001710823657457,-0.00022724588281392572,1.000208779837119
-0.2775039874564215,1.0001632276387504,2.5001846802191228,-0.0002455688035638744,1.000226406975685
-0.2756293870644657,1.0001764672328466,2.5001989565241556,-0.0002646221856233647,1.0002450299071495
-0.2737548158826966,1.0001903850046643,2.500213883263668,-0.0002843680268480569,1.0002646284029855
-0.2718802750512886,1.0002049574080274,2.5002294235776734,-0.00030475457149449167,1.0002851716468106
-0.2700057655971844,1.0002201518722735,2.5002455300972652,-0.00032571369888288574,1.0003066164036614
-0.26813128838936384,1.0002359249659705,2.500262142723692,-0.00034715880082262466,1.000328904659936
-0.2662568441192685,1.000252220167598,2.5002791859020776,-0.0003689830685614324,1.0003519607355826
-0.26438243328173383,1.0002689653965526,2.5002965656057663,-0.00039105975743202815,1.000375688026962
-0.2625080561674385,1.0002860706364056,2.500314166478047,-0.0004132445684325741,1.0003999657842892
-0.2606337128889984,1.0003034258202228,2.5003318492935893,-0.0004353798195331219,1.000424646256082
-0.2587594033992926,1.0003208990218295,2.500349448745717,-0.00045729708095753317,1.000449552380612
-0.25688512743632363,1.0003383344692864,2.5003667708410178,-0.0004788135659053537,1.0004744755963761
-0.255010884432941,1.0003555491358405,2.5003835882201106,-0.0004997192043624708,1.0004991722911987
-0.253136673306425,1.000372325418842,2.5003996301101616,-0.0005197487149020549,1.0005233557296125
-0.25126249233657055,1.0003883958283772,2.5004145615485176,-0.0005385847585164697,1.0005466781615284
-0.24938833894217888,1.0004034147872696,2.500427945444938,-0.0005558495071544355,1.0005686966868812
-0.2475142095984216,1.0004169138589432,2.5004391829204256,-0.0005711336351845443,1.0005888176019233
-0.24564009987557126,1.0004282398962128,2.500447431928057,-0.0005840502268094404,1.0006062174559085
-0.24376600269836857,1.0004364791344753,2.500451508852823,-0.0005938772316170213,1.0006197435722657
-0.24189190905355004,1.0004403752148705,2.5004497841371536,-0.0005995533362744495,1.0006278037317193
-0.24001780707199585,1.0004382545765633,2.5004400898424564,-0.0005995611674123215,1.000628262401347
-0.23814367870962896,1.000427972117831,2.5004196565082233,-0.0005912590116574439,1.0006183603252323
-0.23626950582665238,1.0004068844025982,2.5003850895418447,-0.000571557878645938,1.0005946668965886
-0.23439526436205788,1.0003718481298818,2.5003323831872932,-0.0005370060858440317,1.0005530622937417
-0.2325209271964709,1.0003192287513227,2.500256953807363,-0.00048352670876606035,1.0004887295274683
-0.2306464545818456,1.0002448881261885,2.5001536542587104,-0.0004058952592715658,1.000396115493927
-0.22877179717853366,1.000144113783445,2.500016722431304,-0.00029861113489210384,1.0002688121217582
-0.22689687935492828,1.0000114677267156,2.4998396333038464,-0.0001542188129650273,1.0000993307838502
-0.22502157751331417,0.9998405592087818,2.4996148548883625,38907425102753805e-21,0.9998787796322368
-0.22314570696727082,0.9996237781900957,2.499333547087075,0.0002989371288575983,0.999596497083262
-0.22126905399201333,0.9993520622889099,2.4989852871757336,0.0006464997619635037,0.999239742219324
-0.21939141334426376,0.9990147899341432,2.4985579305687984,0.0011004293075252206,0.9987935683445943
-0.2175125728665873,0.998599876864535,2.4980377003542684,0.0016790606569128017,0.9982409842108152
-0.2156323497085536,0.998094124974673,2.4974095753841867,0.002396685408793847,0.9975634621071343
-0.21375064961774526,0.9974838071165177,2.4966579706198604,0.0032588088133590036,0.9967417615902894
-0.21186738321339926,0.9967553516650068,2.495767560834972,0.0042664512116358504,0.9957568789978373
-0.20998241901770096,0.9958959742076071,2.494724081294399,0.005420071576386677,0.9945909043381218
-0.208095537331896,0.9948940478450867,2.493514861336895,0.0067237305882995625,0.993227499725838
-0.2062063610987065,0.9937390482238906,2.4921288823461576,0.008190530865227568,0.9916517818695524
