position,density,energy,velocity,pressure
-0.598125,0.5416666666666646,2.5,0,0.5416666666666645
-0.59625,0.6234064651471283,2.5,0,0.623406465147128
-0.594375,0.7005171413057901,2.5,0,0.70051714130579
-0.5925,0.7703979942388643,2.5,0,0.7703979942388642
-0.590625,0.8311077493487444,2.5,0,0.8311077493487442
-0.58875,0.8814967113736234,2.5,0,0.8814967113736232
-0.5868749999999999,0.9212614020288449,2.5,0,0.9212614020288447
-0.585,0.9508986369663153,2.5,0,0.9508986369663149
-0.583125,0.9715636019067272,2.5,0,0.971563601906727
-0.5812499999999999,0.9848589098523679,2.5,0,0.9848589098523677
-0.579375,0.9925888439913193,2.5,0,0.9925888439913191
-0.5775,0.996517018468919,2.5,0,0.9965170184689188
-0.5756249999999999,0.9981649798823132,2.5,0,0.9981649798823131
-0.57375,0.9986809337465806,2.5,0,0.9986809337465803
-0.571875,0.9987942742367624,2.5,0,0.9987942742367621
-0.57,0.9988573447055643,2.5,0,0.9988573447055641
-0.568125,0.9989618604169329,2.5,0,0.9989618604169328
-0.5662499999999999,0.9990977512232212,2.5,0,0.9990977512232209
-0.564375,0.9992473154962672,2.5,0,0.999247315496267
-0.5622740577217226,0.9994134544325416,2.4993725856011944,0.0009898005978950487,0.9991629303030739
-0.5605748779889961,0.9995394025999383,2.499533524476871,8715969770937883e-20,0.999353066579529
-0.5587684076971038,0.9996596602921137,2.4996575005142976,-0.000232174202047073,0.9995228550093405
-0.5569175322566738,0.9997652334513933,2.4997627286997526,-0.00035703539405885484,0.99967043773848
-0.5550408619254392,0.9998508058610279,2.4998485588448562,-0.0003399782989210008,0.9997902155159977
-0.5531426609317825,0.9999125383283342,2.499911101412708,-0.00018005042664816638,0.9998768306804017
-0.5512270439773391,0.9999484239306666,2.4999474714140386,9474216819598083e-20,0.9999271893999052
-0.5493206638395426,0.9999598019022363,2.49995870515405,0.0003001404352827236,0.9999430976298965
-0.5474370952482095,0.9999528457161018,2.4999514287848914,0.0003508868284448047,0.9999333790421532
-0.5455662082119533,0.9999367632748536,2.4999350609815005,0.00030743761228384307,0.9999109707896788
-0.5437028582151011,0.999921824131891,2.4999199236935072,0.00020240899786154736,0.9998902083399446
-0.5418437823615427,0.9999170883404065,2.4999150529742633,59610745586684237e-21,0.9998837006235026
-0.5399857876628785,0.9999278221749304,2.4999256835704777,-9709796405482216e-20,0.9998987649587959
-0.5381267217664332,0.9999536430627364,2.49995147659244,-0.00023633567838203786,0.9999348770604269
-0.5362623295707007,0.999988152530737,2.4999861520690114,-0.00031805871972620325,0.999983158905207
-0.5343859242598642,1.0000200146195832,2.5000184641691416,-0.0002613994308704164,1.0000278388669415
-0.5324872181907465,1.0000349442602556,2.5000338131256736,3668052256339151e-20,1.0000488795098754
-0.5305781794748308,1.0000217842960568,2.5000202038233397,0.0003763902792518755,1.0000304014596153
-0.5286911706050738,0.9999893326892715,2.499987053070553,0.00044939394872620504,0.9999848939411735
-0.5268219265941289,0.9999555960278013,2.4999530732648787,0.00034544302213285416,0.9999377292000176
-0.5249601450196459,0.9999356231158312,2.4999332579896216,0.00017551765430549396,0.9999098707129581
-0.5231007840530659,0.9999368354877878,2.4999348727784394,-16457761502987446e-21,0.9999116110509942
-0.5212391708643975,0.9999575830736931,2.499956188489026,-0.00017002640616639608,0.9999406321435443
-0.5193723545446529,0.9999889320907998,2.499988253508992,-0.0002500677220964732,0.9999844929291375
-0.5174978260306801,1.0000190717126234,2.500019142928436,-0.0002154930731396168,1.0000267098321451
-0.5156144407685301,1.0000380301879748,2.5000386031109936,-49525289645202975e-21,1.0000532980939447
-0.5137249053282903,1.0000407875969586,2.5000413142251774,0.0001667362665488747,1.0000571566305307
-0.5118376295180642,1.0000285196519276,2.5000284492520204,0.00028538614457853507,1.0000399076938422
-0.5099584543505858,1.0000076938987141,2.500006804588267,0.0002957842843223516,1.0000106582849533
-0.5080862446285127,0.999987296332472,2.499985671355664,0.00023248937679976422,0.9999820150074399
-0.5062177078138008,0.9999756531921357,2.4999735249951116,0.00012555575730047576,0.9999656151629703
-0.5043505862994563,0.9999775771961401,2.499975215236398,5648917184397263e-21,0.9999681774028767
-0.502482907532994,0.9999924704974249,2.4999900995688105,-0.00010063349042397764,0.9999888742752112
-0.5006125065702525,1.0000144393494792,2.500012183490578,-0.00015251716539970082,1.0000194950441792
-0.4987377334995944,1.0000350702201994,2.500032902250837,-0.000122113474722118,1.0000483001998834
-0.4968581077951055,1.0000474969593638,2.5000452237446473,4003975429633444e-21,1.000065685423723
-0.49497540589936584,1.000049005252468,2.500046354773597,0.0001534672618803721,1.0000678396832683
-0.4930938267950748,1.0000414454070612,2.500038245165526,0.00022336629447187184,1.0000573519389175
-0.49121658598786666,1.0000299052614487,2.5000262152409682,0.0002193629725351376,1.0000413600467684
-0.4893434460751549,1.0000203999911663,2.5000164717025886,0.0001707132624052275,1.0000282830210063
-0.48747200813299935,1.0000176290250065,2.5000137875509965,0.00010252566831354864,1.0000246757144406
-0.48560097209286435,1.000023445378217,2.500019990956163,3338954859398655e-20,1.000033107282723
-0.4837294770234641,1.000036365652809,2.5000334926941625,-2142175860252486e-20,1.0000514807477272
-0.481856685952034,1.0000523519565547,2.500050108636543,-4328840256733965e-20,1.0000741255294276
-0.4799819954949844,1.0000665826940838,2.500064880656031,-2092948144948026e-20,1.0000942712622591
-0.47810530677087837,1.0000753272020644,2.500073994001188,4772775054343744e-20,1.0001066703435753
-0.4762269811325363,1.000077092864922,2.5000759578519083,0.00012818431504753514,1.0001092108642002
-0.4743484680186916,1.000072797934344,2.500071781395044,0.00017435018866436856,1.0001031664546327
-0.472472067383298,1.0000651492352493,2.500064322864543,0.00017943853653380087,1.0000923324718554
-0.47059793771941577,1.0000575001673762,2.5000570677155154,0.0001567733988050608,1.0000814179274171
-0.4687247850774814,1.0000526379507046,2.500052858923372,0.0001225675658083347,1.0000743420278309
-0.4668518410685768,1.0000519016715048,2.5000530019254206,8990660915181237e-20,1.00007300233909
-0.4649786847822418,1.0000548707307748,2.5000569554117926,6274292148138896e-20,1.0000768359268675
-0.4631049457340231,1.0000597466966081,2.5000627431316187,48091818860177233e-21,1.0000833487629697
-0.461230382567494,1.0000642538379754,2.5000679019713323,49663064029295784e-21,1.000089370982247
-0.45935485202803705,1.0000666038432742,2.500070490860336,656966380229205e-19,1.0000924040701757
-0.45747825232236,1.000066078486867,2.500069703503457,9282048226605354e-20,1.0000914371845515
-0.45560129342183725,1.0000630969741053,2.500065948392133,0.00011525738681118626,1.0000870452523647
-0.45372550773059434,1.0000589070723966,2.500060536262994,0.00011520135358210921,1.000080962299236
-0.45185093133880494,1.0000550624782398,2.5000551242481817,9983005457076456e-20,1.0000753509555882
-0.44997696497717365,1.000052881348145,2.5000511451437837,790349049705117e-19,1.0000720486618833
-0.4481031420428053,1.0000530501624667,2.500049393314524,5830259545941504e-20,1.000072018767725
-0.44622921130592896,1.000055484920782,2.5000498744779023,407908777371346e-19,1.0000751582126066
-0.4443549756501124,1.0000594912469276,2.5000519648333777,28926247537447548e-21,1.0000805197266418
-0.44248028115160337,1.0000641701092348,2.5000548234435986,27033462138687084e-21,1.0000868756349417
-0.4406050021113101,1.0000688812811376,2.500057862213826,40757256981861805e-21,1.0000933620806436
-0.43872906585534616,1.0000735106730643,2.5000610156506036,8152863209146352e-20,1.0000998489563964
-0.4368530809296617,1.0000784569046413,2.5000647258321242,0.00012958139197202627,1.0001069171310772
-0.43497762367133314,1.0000844249644865,2.5000697267080247,0.00014674314622093587,1.0001155647391882
-0.433102779710274,1.000092131431618,2.5000767432392528,0.00014060951976896746,1.000126791788296
-0.4312283361053767,1.0001020190242278,2.500086203927919,0.0001251688700699771,1.00014119994266
-0.429354025830284,1.000114061634162,2.500098049209681,0.00010954237583000697,1.0001587206855067
-0.4274796754470586,1.0001277155685742,2.5001116913605066,9980483538434102e-20,1.0001785499741236
-0.4256051851830059,1.0001420429140684,2.5001261498053227,9952227909416157e-20,1.000199325585095
-0.4237304911353554,1.0001559868533916,2.5001403400766486,0.00011242729283088488,1.0002195187485425
-0.42185555996807816,1.0001686900388254,2.5001534022269603,0.00014300990041362591,1.0002378864440409
-0.4199805200159883,1.000179696682709,2.5001649029886974,0.0001824357489822519,1.00025375943678
-0.4181055097417365,1.0001889863528146,2.5001748599632307,0.00021889658108432218,1.0002670921849885
-0.416230620982415,1.0001968747938998,2.5001836277026848,0.0002460352983210607,1.0002783245194438
-0.41435589425923086,1.0002038427406577,2.500191710865609,0.00026112798712968615,1.0002881404213428
-0.41248129781383397,1.000210349158169,2.5001995645685304,0.0002663691044917612,1.0002972035295674
-0.4106067720993143,1.0002166795818839,2.500207435731493,0.0002665195850336618,1.0003059410467305
-0.40873226679936436,1.0002228689586303,2.5002152873395262,0.0002660309484245882,1.0003144317842316
-0.4068577512352666,1.000228720534862,2.5002228287453447,0.0002673155452741816,1.000322428875262
-0.40498321303648227,1.0002339111881033,2.5002296413251237,0.00027117754446586724,1.0003295037335553
-0.40310865389220085,1.000238125354747,2.5002353337856245,0.00027701288438193214,1.0003352307534126
-0.4012340831093606,1.0002411586167328,2.5002396593749414,0.00028348882537157163,1.0003393315054128
-0.39935951232621164,1.0002429609755161,2.5002425614982378,0.00028913762806185493,1.0003417365474647
-0.3974849499664696,1.0002436234957466,2.500244153725533,0.00029296180868689734,1.0003425687335425
-0.395610399254835,1.0002433301217044,2.500244659920987,0.00029469711339348255,1.000342078146451
-0.39373585895324265,1.0002422975451246,2.50024434114683,0.0002946304714914956,1.000340560340819
-0.39186132543970276,1.0002407218935327,2.5002434313414517,0.00029329936337798093,1.0003382837373762
-0.3899867939197942,1.0002387455743997,2.5002420976379036,0.0002912956568671495,1.0003354443628358
-0.3881122605710273,1.0002364495263605,2.500240431724928,0.0002889874895915236,1.0003321549441289
-0.3862377230522758,1.000233864966154,2.5002384648565084,0.0002865033398404187,1.0003284604336489
-0.3843631803127014,1.0002309944258783,2.5002361939471545,0.0002838090332188896,1.0003243662538874
-0.3824886322627699,1.0002278322693952,2.500233606781158,0.00028077256550501547,1.0003198659604533
-0.38061407882161524,1.0002243783835523,2.500230698641011,0.00027732423215661583,1.0003149597750773
-0.3787395199436796,1.0002206439697825,2.500227479059435,0.00027342054516849197,1.0003096626324477
-0.3768649555549794,1.000216651473539,2.5002239713342145,0.0002690338815225986,1.0003040044412064
-0.37499038544503105,1.0002124313440814,2.50022020827792,0.0002641589840077329,1.000298026040664
-0.37311580925834836,1.0002080179576585,2.5002162271013155,0.0002588100478822257,1.0002917739355133
-0.37124122655111225,1.000203446221474,2.500212065261011,0.00025301313849433006,1.0002852958284318
-0.36936663686155763,1.0001987495406306,2.500207758059256,0.0002467980222039128,1.0002786378878552
-0.3674920397731145,1.0001939591732243,2.500203337981008,0.00024019189442853103,1.0002718438111942
-0.3656174349558426,1.0001891045898004,2.500198835263737,0.00023321602420491562,1.000264955200694
-0.36374282218493564,1.0001842143337023,2.500194279059526,0.00022588501011263593,1.0002580126074723
-0.36186820133617464,1.0001793169407962,2.5001896986380427,0.00021820786725861642,1.0002510566706342
-0.3599935723788503,1.0001744416310745,2.5001851242781066,0.0002101900916797777,1.0002441289728454
-0.3581189353606788,1.000169618649761,2.5001805877031735,0.0002018356721437555,1.000237272449461
-0.3562442903951547,1.0001648792832085,2.5001761220991328,0.00019314847555966812,1.0002305313847375
-0.35436963765480045,1.0001602556559026,2.5001717618522066,0.00018413284339750385,1.0002239511349889
-0.35249497736991703,1.0001557804319348,2.500167542164103,0.00017479351461481012,1.000217577738755
-0.35062030982821685,1.0001514865192649,2.5001634986688677,0.000165135143299493,1.0002114575391998
-0.3487456353818741,1.000147406832414,2.500159667121267,0.00015516153276302905,1.000205636887277
-0.3468709544524431,1.0001435741297127,2.500156083176837,0.00014487494368618502,1.0002001619424314
-0.3449962675333786,1.0001400209141114,2.50015278225012,0.00013427562564767616,1.000195078552751
-0.34312157519185427,1.000136779373327,2.5001497994214312,0.00012336158253503274,1.000190432180408
-0.3412468780687821,1.000133881333805,2.5001471693608703,0.00011212855832249655,1.0001862678381592
-0.3393721768756133,1.0001313582087823,2.500144926245463,0.00010057014156593989,1.0001826300118632
-0.3374974723939737,1.0001292409287024,2.5001431036550246,8867805815740358e-20,1.0001795625554524
-0.33562276547348,1.0001275598492592,2.500141734440931,7644250916032497e-20,1.0001771085543987
-0.33374805702861243,1.000126344637099,2.5001408505679645,6385248532420287e-20,1.0001753101598725
-0.33187334803586066,1.0001256241353544,2.5001404829319562,5089606969999211e-20,1.0001742083979768
-0.3299986395309969,1.0001254262114307,2.5001406611565904,3756072704192295e-20,1.0001738429580371
-0.32812393260456135,1.0001257775888146,2.500141413372029,238336244554907e-19,1.00017425196217
-0.32624922839878123,1.0001267036635737,2.5001427659770394,9701932147048405e-21,1.0001754717161797
-0.3243745281046747,1.0001282283053965,2.5001447433855484,-4846869051129331e-21,1.0001775364401928
-0.3224998329571653,1.0001303736427873,2.500147367758544,-1982460565961831e-20,1.0001804779768262
-0.320625144229908,1.0001331598320724,2.500150658722306,-3524197449744487e-20,1.0001843254746472
-0.3187504632296527,1.000136604809755,2.500154633073824,-5110806175555961e-20,1.000189105044746
-0.31687579128965054,1.0001407240271585,2.500159304473168,-6742981848156259e-20,1.0001948393879083
-0.31500112976244454,1.000145530164596,2.500164683120105,-8421149887425164e-20,1.000201547388242
-0.31312648001116145,1.0001510328199819,2.5001707754088915,-0.0001014540351163015,1.0002092436666934
-0.31125184340004425,1.000157238165002,2.5001775835524507,-0.00011915437099525367,1.0002179380862348
-0.30937722128398026,1.0001641485623736,2.5001851051669832,-0.00013730477656666846,1.0002276352017936
-0.30750261499803627,1.000171762140351,2.500193332810952,-0.00015589219055940745,1.000238333652116
-0.30562802584689247,1.0001800723258751,2.5002022534786352,-0.0001748975888709895,1.0002500254982924
-0.3037534550934196,1.000189067344118,2.5002118480558644,-0.0001942953813502287,1.0002626955232412
-0.30187890394729544,1.0001987296954735,2.500222090748718,-0.00021405284382475167,1.0002763205128424
-0.30000437355302545,1.000209035616369,2.5002329484883083,-0.00023412955069208798,1.0002908685356848
-0.298129864977668,1.0002199545171413,2.5002443802974543,-0.00025447676263605935,1.0003062982212607
-0.2962553791974101,1.0002314483800612,2.5002563365975603,-0.00027503686855975666,1.0003225580133421
-0.29438091708176334,1.0002434710968762,2.5002687584436885,-0.00029574283440986487,1.0003395853469084
-0.29250647937392604,1.0002559676743066,2.500281576619359,-0.00031651780017453985,1.0003573056140764
-0.2906320666669001,1.000268873228717,2.500294710525718,-0.0003372744703876569,1.0003756307572438
-0.2887576793677831,1.000282111507788,2.500308066525773,-0.0003579134371845551,1.0003944571475336
-0.2868833176533958,1.0002955926153614,2.5003215352875325,-0.0003783196170850064,1.0004136623919744
-0.2850089814103261,1.0003092094462236,2.500334987356311,-0.0003983550906959871,1.000433100641773
-0.2831346701747585,1.0003228322225066,2.5003482659983303,-0.0004178478386478112,1.000452595857249
-0.2812603830376847,1.0003363006984418,2.5003611765811966,-0.00043657575636573575,1.0004719326989475
-0.27938611857676965,1.000349413814564,2.500373472103269,-0.0004542534416107551,1.0004908448534118
-0.27751187502623414,1.0003619167002824,2.500384834739859,-0.00047056762205370653,1.0005090005610193
-0.27563765039047894,1.0003734848257435,2.5003948534077636,-0.00048520757060764564,1.0005259846856795
-0.273763442782307,1.000383705017673,2.5004029974773556,-0.0004979528415267306,1.0005412762089525
-0.27188925069729825,1.000392051490156,2.500408585008869,-0.0005087503919126676,1.0005542177405222
-0.27001507046530393,1.0003978525652557,2.500410740714414,-0.0005172238948693765,1.0005639704152756
-0.2681408997074307,1.000400242519787,2.5004083371533894,-0.000523288863254847,1.000569446278262
-0.2662667283718496,1.0003980949609186,2.500399914981645,-0.0005256425331762321,1.0005692134322148
-0.26439254644752685,1.000389936792624,2.500383581312808,-0.00052293854556867,1.0005613731559768
-0.26251833174335326,1.000373846815446,2.500356891281209,-0.0005121892569251266,1.0005434150721322
-0.2606440566038372,1.0003473518837276,2.500316728446716,-0.0004895272570275044,1.0005120685337263
-0.2587696814763321,1.000307340918573,2.5002592088138456,-0.0004495750879303341,1.0004631783315345
-0.25689515075751723,1.0002500171072353,2.500179633544623,-0.0003847691880098002,1.0003916324791802
-0.2550204087002318,1.0001709036976758,2.5000725096685126,-0.0002879480736409818,1.0002913626671461
-0.2531454080746991,1.0000649057710846,2.4999316425106324,-0.00015441470601752148,1.0001554201265335
-0.251270098965904,0.9999264098309127,2.4997502788201538,20110577096456935e-21,0.9999761014099169
-0.24939441498313608,0.9997493800786915,2.4995212523322508,0.00024108927508617687,0.9997450674938242
-0.24751828290991293,0.9995274028988737,2.4992370726082997,0.0005143586279028535,0.9994533902255722
-0.24564159040142072,0.9992536345957,2.498889899552802,0.0008480791645800778,0.9990914672463308
-0.24376415336634197,0.9989206340767423,2.4984713759739483,0.0012561345166736384,0.9986487833753506
-0.24188571420487123,0.9985201005389189,2.497972336016146,0.0017582846320403044,0.9981135491741181
-0.2400059949707045,0.99804259135981,2.497382471246993,0.0023764292917019753,0.997472322191712
-0.23812468088808494,0.9974773040297549,2.4966900470684528,0.0031344522218592734,0.9967097305038477
-0.23624144666618735,0.9968120474491224,2.495881818895239,0.0040563362877962085,0.9958084681240766
-0.23435604877693086,0.9960335039169765,2.4949432757754777,0.005159158595427997,0.9947496956200943
-0.23246835092563317,0.9951277883148414,2.49385923285479,0.006450170136452699,0.9935138508888194
-0.23057823991278614,0.9940812068812276,2.4926146815161045,0.007929721378324402,0.9920817290139254
-0.22868562834892933,0.9928811192587624,2.4911958068932214,0.00959177588737456,0.9904356833869593
-0.22679036737722155,0.9915166274592329,2.489590860637539,0.01142930708834625,0.9885605678681179
-0.22489211661845987,0.9899788788401922,2.4877906376659404,0.0134426532251617,0.9864441275390939
-0.22299022505580515,0.9882608511055988,2.4857883828594645,0.015648147651558537,0.9840766631671553
-0.22108381602434982,0.9863567490611898,2.4835792324135597,0.018078149785994212,0.9814501507713211
-0.2191719276470706,0.9842610916026976,2.4811592264758042,0.020777025301072005,0.9785569453125809
-0.21725353996661223,0.9819675781774077,2.4785239547159303,0.02379804546101034,0.9753882185655797
-0.21532779412248626,0.9794683260202266,2.4756674708915627,0.02719093794532121,0.9719329417350173
-0.21339427952985637,0.9767537775606112,2.4725818118115255,0.0309853362493709,0.9681778323478922
-0.2114529785784621,0.9738130483770837,2.469256938937264,0.0351836249184925,0.9641079663371954
-0.20950419772220488,0.9706350963819529,2.465681637282573,0.039757283511068844,0.9597085434737369
-0.20754840807204727,0.9672104489727719,2.4618452044067065,0.044650387183123884,0.9549674127288856
-0.205585950122132,0.9635329753218124,2.4577394542226103,0.04979203621170286,0.9498776211555146
