position,density,energy,velocity,pressure
-0.598125,0.5416666666666646,2.5,0,0.5416666666666645
-0.59625,0.6234064651471283,2.5,0,0.623406465147128
-0.594375,0.7005171413057901,2.5,0,0.70051714130579
-0.5925,0.7703979942388643,2.5,0,0.7703979942388642
-0.590625,0.8311101058222868,2.5,0,0.8311101058222867
-0.58875,0.881517616508207,2.5,0,0.8815176165082068
-0.5868749999999999,0.9213327975852085,2.5,0,0.9213327975852083
-0.585,0.9510599380293673,2.5,0,0.9510599380293671
-0.583125,0.9718495569276663,2.5,0,0.971849556927666
-0.5812499999999999,0.9852881143531512,2.5,0,0.985288114353151
-0.579375,0.9931567447166523,2.5,0,0.9931567447166519
-0.5775,0.9971958175960772,2.5,0,0.997195817596077
-0.5756249999999999,0.998909847416616,2.5,0,0.9989098474166158
-0.57375,0.9994397961476775,2.5,0,0.9994397961476773
-0.571875,0.9995183254924512,2.5,0,0.999518325492451
-0.57,0.9995098554908877,2.5,0,0.9995098554908874
-0.568125,0.9995234991536974,2.5,0,0.9995234991536973
-0.5662499999999999,0.9995675075864344,2.5,0,0.9995675075864342
-0.564375,0.9996390996140445,2.5,0,0.9996390996140443
-0.5624478661389113,0.9997347982826673,2.4996894370707743,0.0019404471262924052,0.9996248523744575
-0.5606006109523531,0.9998408512014257,2.499811126222133,0.0007819410407372359,0.9997769318582959
-0.5587382426057259,0.9999518646021835,2.499933336482572,0.0002922592744236075,0.9999344724706591
-0.5568686422481648,1.000058316558088,2.500049690497546,8043799627460767e-20,1.0000854034957818
-0.5549952978062269,1.000151780985788,2.5001519682856834,4961516922518788e-20,1.000218088900334
-0.5531200167112619,1.0002259348617726,2.5002334892022438,0.00013088255488560927,1.0003235491221512
-0.5512438782171301,1.0002772039057288,2.5002904261370653,0.00026740821077092167,1.0003966155014852
-0.5493676919801271,1.0003050059181584,2.5003221955942063,0.0003989387929174478,1.0004363347881438
-0.5474919128972269,1.00031156253115,2.500331257353684,0.0004914452654836397,1.0004457323583815
-0.5456167042623581,1.0003013102253877,2.500322451144956,0.0005307577267606707,1.000430998687622
-0.5437420201591255,1.000280017056574,2.5003020150948068,0.0005249337246198547,1.0004002530959684
-0.5418677336117147,1.0002537501327458,2.5002764542127465,0.00048584663365787385,1.0003620900352506
-0.5399936762662823,1.0002278538855285,2.5002514339393467,0.00042910405656501735,1.000324134303786
-0.5381196953779501,1.0002060951327432,2.50023086507336,0.0003673761761188023,1.0002918258422537
-0.5362456647440891,1.0001901042129333,2.500216316692935,0.00031122428550525233,1.000267615703743
-0.5343714499778744,1.0001791957934365,2.5002068443049303,0.00026969646655921665,1.0002506934811548
-0.5324969403270581,1.0001705952439701,2.5001992577402423,0.0002493271692257371,1.0002372858569621
-0.5306222088758186,1.0001607046413392,2.5001895322858863,0.00024344537799703483,1.0002224160958828
-0.5287474180825739,1.0001482458651476,2.500176311435436,0.00023787321311895607,1.00020430166479
-0.5268726355331728,1.0001336958333369,2.500160249241961,0.00022740938178766233,1.0001835745156888
-0.5249978792505171,1.0001181642269417,2.500142723952961,0.00021124996851168925,1.000161723755569
-0.5231231429660629,1.0001027923174648,2.500125140914005,0.00019073020343033054,1.0001402710909195
-0.5212484108794395,1.0000884559713972,2.500108583108284,0.00016794664557070465,1.0001203700847416
-0.5193736667345987,1.000075663699323,2.5000936904542757,0.00014500613415158696,1.0001026721653752
-0.517498897759435,1.0000645799004675,2.500080688277483,0.00012352496778033934,1.000087362895417
-0.5156240968470249,1.0000551153388817,2.5000694960022685,0.00010447307061811704,1.0000742894117076
-0.5137492634657286,1.000047038411704,2.500059860195932,8810967422996578e-20,1.0000631152779786
-0.5118743988786945,1.000040075978386,2.500051474827844,7446795392032633e-20,1.0000534592908967
-0.5099995071701725,1.0000339858617917,2.500044067729708,6326156880243463e-20,1.000044993362547
-0.5081245943632849,1.0000285947167522,2.5000374460486037,53968372687926265e-21,1.0000374911440397
-0.5062496660733224,1.0000238038882963,2.5000315037255034,46070642716497534e-21,1.0000308320910707
-0.5043747268172118,1.0000195716404692,2.5000262008374823,3914135673673146e-20,1.0000249733423072
-0.502499779170307,1.0000158834043178,2.5000215285820686,3294462972230098e-20,1.0000199058527601
-0.5006248244267258,1.000012724225724,2.5000174767550902,27408711884192968e-21,1.000015614690548
-0.4987498630241584,1.0000100646255,2.5000140172056766,2249341721844501e-20,1.0000120590329533
-0.4968748952033302,1.0000078598672453,2.50001110323569,18167887907112056e-21,1.0000091717487685
-0.49499992142237265,1.0000060556743136,2.5000086765234637,14412777571731548e-21,1.000006868532555
-0.49312494233521253,1.0000045951408223,2.500006675262626,11201432144356219e-21,1.0000050590020058
-0.4912499586685172,1.0000034242408062,2.5000050404534977,8497199842468838e-21,1.000003655937941
-0.4893749713020228,1.0000024950484012,2.500003719370813,6237587955469855e-21,1.0000025812395377
-0.48749998112174253,1.0000017668019923,2.500002666470758,43456897644274445e-22,1.0000017686077345
-0.48562498834214457,1.0000012054242413,2.500001842563665,28600962443241077e-22,1.0000011636931048
-0.4837499934104917,1.000000782262334,2.5000012132332303,17524571829142938e-22,1.0000007227124028
-0.48187499681513696,1.0000004726984386,2.500000747309648,9662289266991872e-22,1.0000004104328049
-0.4799999990048007,1.0000002550268603,2.5000004158631723,4332087915422475e-22,1.000000198119572
-0.4781250003108509,1.000000109807411,2.5000001918861434,9620958917025908e-23,1.0000000619111713
-0.47625000102735504,1.0000000196941052,2.5000000505601214,-10126554049567847e-23,0.9999999818145514
-0.47437500133082855,0.9999999695715152,2.4999999698309683,-19968849023077626e-23,0.9999999412199144
-0.47250000135686016,0.9999999467833344,2.4999999309876038,-2309725676424374e-22,0.9999999267091733
-0.4706250012158338,0.9999999412713222,2.4999999190133373,-2207209452971767e-22,0.9999999279215019
-0.46875000099354075,0.9999999455274698,2.4999999226002125,-1884891499312703e-22,0.999999937327495
-0.46687500075147637,0.999999954340055,2.499999933820889,-14813162221836687e-23,0.9999999498578658
-0.4650000005271738,0.9999999643938843,2.4999999475630474,-1083347226460754e-22,0.9999999624241651
-0.46312500034341264,0.9999999738160598,2.4999999608709214,-7435843698722404e-23,0.9999999734100262
-0.46125000020724705,0.9999999817399332,2.499999972306524,-4824942230302506e-23,0.9999999821987581
-0.45937500011210064,0.9999999879328161,2.4999999814009883,-29221123810291057e-24,0.9999999887781529
-0.4575000000492663,0.9999999925104915,2.4999999882315986,-1596525121462327e-23,0.999999993442735
-0.45562500001028733,0.9999999957404808,2.4999999931278,-7131491499208732e-24,0.99999999659379
-0.45374999998797927,0.9999999979224605,2.499999996489795,-15316361717115794e-25,0.9999999986230805
-0.451874999976603,0.9999999993274651,2.499999998693453,1822793295535325e-24,0.9999999998591513
-0.4499999999721867,1.0000000001758926,2.5000000000526996,3617996060564602e-24,1.0000000005538656
-0.4481249999720244,1.000000000636836,2.5000000008141035,4358783816295783e-24,1.0000000008899306
-0.44624999997425063,1.0000000008364949,2.500000001165798,4425043926227972e-24,1.0000000009961538
-0.4443749999776812,1.0000000008681773,2.500000001249718,4083536246305099e-24,1.000000000962574
-0.4424999999815636,1.0000000008001764,2.500000001171538,35222701570170188e-25,1.0000000008518055
-0.44062499998542276,1.000000000681347,2.5000000010079138,28732891081488373e-25,1.0000000007067076
-0.4387499999889718,1.000000000545194,2.5000000008120336,22251457669409052e-25,1.000000000555546
-0.43687499999208473,1.0000000004131275,2.500000000618287,16268450041032818e-25,1.0000000004156508
-0.43499999999461736,1.0000000002972644,2.500000000446474,11239774567776604e-25,1.0000000002962248
-0.43312499999655363,1.0000000002029164,2.5000000003056355,7306654772970137e-25,1.000000000200648
-0.4312499999979522,1.00000000013078,2.5000000001974776,44161978674234336e-26,1.0000000001284273
-0.42937499999890866,1.0000000000787617,2.5000000001192393,24113458112199947e-26,1.00000000007679
-0.42749999999952243,1.0000000000433906,2.5000000000659077,11077054574668567e-26,1.0000000000419131
-0.42562499999988423,1.0000000000208198,2.500000000031802,32707117898740355e-27,1.0000000000197922
-0.4237500000000746,1.0000000000074603,2.5000000000115667,-9312080429079738e-27,1.0000000000067844
-0.42187500000015526,1.000000000000309,2.5000000000007,-2797822820496459e-26,0.9999999999998846
-0.42000000000017135,0.99999999999706,2.4999999999957336,-3275444083071604e-26,0.9999999999968038
-0.4181250000001543,0.9999999999960686,2.4999999999941864,-30222523133414445e-27,0.9999999999959193
-0.416250000000124,0.9999999999962406,2.499999999994408,-24612856800752344e-27,0.9999999999961563
-0.41437500000009186,0.9999999999969023,2.4999999999953793,-18396662557348695e-27,0.9999999999968562
-0.41250000000006376,0.9999999999976755,2.499999999996527,-12853331895212371e-27,0.9999999999976511
-0.4106250000000416,0.999999999998375,2.499999999997569,-8422875579326827e-27,0.9999999999983623
-0.40875000000002526,0.9999999999989309,2.4999999999984,-5152251441203382e-27,0.9999999999989244
-0.40687500000001414,0.9999999999993363,2.499999999999006,-28955644339722265e-28,0.9999999999993331
-0.40500000000000697,0.9999999999996123,2.4999999999994187,-1440490436233549e-27,0.9999999999996105
-0.4031250000000026,0.9999999999997888,2.4999999999996834,-5697586178521922e-28,0.9999999999997878
-0.4012500000000004,0.9999999999998956,2.4999999999998423,-9532979370603902e-29,0.9999999999998948
-0.39937499999999926,0.9999999999999558,2.499999999999933,1291072395177862e-28,0.999999999999955
-0.39749999999999885,0.9999999999999873,2.4999999999999796,20734432931353987e-29,0.9999999999999868
-0.39562499999999895,1.0000000000000022,2.5000000000000013,20914476721032876e-29,1.0000000000000016
-0.3937499999999991,1.000000000000007,2.5000000000000093,17685958491014072e-29,1.0000000000000064
-0.3918749999999993,1.0000000000000075,2.5000000000000115,1352978645485002e-28,1.0000000000000073
-0.3899999999999995,1.0000000000000069,2.5000000000000098,9621117555682311e-29,1.0000000000000067
-0.38812499999999966,1.000000000000005,2.5000000000000075,6443605090605599e-29,1.0000000000000049
-0.38624999999999976,1.0000000000000036,2.5000000000000053,4061680003096081e-29,1.0000000000000033
-0.3843749999999999,1.0000000000000022,2.5000000000000036,24278128952502064e-30,1.000000000000002
-0.3824999999999999,1.000000000000001,2.5000000000000027,13743352276932567e-30,1.0000000000000009
-0.38062499999999994,1.0000000000000004,2.5000000000000018,70774864430851936e-31,1.0000000000000002
-0.37875,1.0000000000000004,2.500000000000001,31476019399986196e-31,1.0000000000000002
-0.37687499999999996,1,2.5000000000000004,9147265600618986e-31,0.9999999999999998
-0.375,1,2.5000000000000004,-11148654168772654e-32,0.9999999999999998
-0.373125,1,2.5000000000000004,-33799567198238183e-32,0.9999999999999998
-0.37124999999999997,1,2.5,-4321856037142676e-31,0.9999999999999998
-0.369375,1.0000000000000002,2.5,-22186848747946015e-32,1
-0.3675,1.0000000000000002,2.5,35287214315477054e-33,1
-0.365625,1,2.5,8968234735213893e-32,0.9999999999999998
-0.36375,1.0000000000000002,2.5,16081572144042087e-32,1
-0.36187499999999995,0.9999999999999999,2.5,-1632479564857931e-31,0.9999999999999996
-0.36,1,2.5,3376928573753054e-32,0.9999999999999998
-0.358125,1.0000000000000002,2.5,6641064175153429e-32,1
-0.35624999999999996,1,2.5,-23120053276078074e-32,0.9999999999999998
-0.354375,1.0000000000000002,2.5,-14479157012812456e-32,1
-0.3525,1,2.5,-40550435119733687e-32,0.9999999999999998
-0.35062499999999996,0.9999999999999999,2.5,-17351924868108944e-32,0.9999999999999996
-0.34875,1,2.5,-2314558173122025e-31,0.9999999999999998
-0.346875,1,2.5,4733725788548646e-31,0.9999999999999998
-0.345,0.9999999999999999,2.5,4558791256399072e-31,0.9999999999999996
-0.343125,1,2.5,32245739846334643e-32,0.9999999999999998
-0.34125,1,2.5,37401184872093205e-32,0.9999999999999998
-0.339375,1,2.5,16240312106796215e-32,0.9999999999999998
-0.33749999999999997,0.9999999999999997,2.5,7857337480949359e-32,0.9999999999999994
-0.335625,1,2.5,2110782924874503e-32,0.9999999999999998
-0.33375,1,2.5,-40233695887355683e-33,0.9999999999999998
-0.331875,0.9999999999999999,2.5,-2588210470163646e-31,0.9999999999999996
-0.32999999999999996,0.9999999999999997,2.5,-43200237752093847e-32,0.9999999999999994
-0.328125,1,2.5,-655860615723026e-30,0.9999999999999998
-0.32625,1,2.5,-4678839745430168e-31,0.9999999999999998
-0.32437499999999997,0.9999999999999999,2.5,-41077216835976034e-32,0.9999999999999996
-0.3225,1,2.5,-4417212549758492e-31,0.9999999999999998
-0.320625,1.0000000000000002,2.5,-5756347260588072e-31,1
-0.31875,1,2.5,-9690933012928834e-32,0.9999999999999998
-0.31687499999999996,0.9999999999999999,2.5,-24661005839826316e-32,0.9999999999999996
-0.315,1.0000000000000002,2.5,-781187040557404e-31,1
-0.313125,1.0000000000000002,2.5,-4721843963335956e-32,1
-0.31124999999999997,1,2.5,16027179815563217e-32,0.9999999999999998
-0.309375,1.0000000000000002,2.5,21291033307022072e-32,1
-0.3075,1.0000000000000004,2.5,-10580414668518596e-32,1.0000000000000002
-0.305625,1,2.5,-4710630722468209e-32,0.9999999999999998
-0.30374999999999996,0.9999999999999999,2.5,14694857168582459e-32,0.9999999999999996
-0.301875,1.0000000000000002,2.5,-41194134112454714e-33,1
-0.3,1.0000000000000002,2.5,-2867662814197431e-32,1
-0.298125,1,2.5,-14161546376548492e-32,0.9999999999999998
-0.29625,1.0000000000000002,2.5,3912610297192587e-32,1
-0.294375,1.0000000000000004,2.5,-12770842415807123e-32,1.0000000000000002
-0.2925,1,2.5,-11925344672739884e-32,0.9999999999999998
-0.29062499999999997,0.9999999999999999,2.5,8739378310015485e-32,0.9999999999999996
-0.28875,1.0000000000000002,2.5,-1343706573946046e-31,1
-0.286875,1.0000000000000002,2.5,-26201718980303053e-32,1
-0.285,1,2.5,-31972932967578506e-32,0.9999999999999998
-0.283125,1.0000000000000002,2.5,3053657685903946e-32,1
-0.28125,1.0000000000000004,2.5,2742706951555303e-31,1.0000000000000002
-0.279375,1,2.5,3750154252491721e-31,0.9999999999999998
-0.27749999999999997,0.9999999999999999,2.5,6672626405046669e-31,0.9999999999999996
-0.275625,1,2.5,5691556622237864e-31,0.9999999999999998
-0.27375,1,2.5,7069843515668157e-31,0.9999999999999998
-0.271875,0.9999999999999999,2.5,43911267849209924e-32,0.9999999999999996
-0.27,1,2.5,3300337043898021e-31,0.9999999999999998
-0.268125,1,2.5,26662263424952166e-32,0.9999999999999998
-0.26625,0.9999999999999998,2.5,846107969769136e-31,0.9999999999999996
-0.26437499999999997,0.9999999999999997,2.5,-7419964223654929e-32,0.9999999999999994
-0.2625,0.9999999999999999,2.5,1566757151677023e-32,0.9999999999999996
-0.260625,1,2.5,-21191544576330986e-32,0.9999999999999998
-0.25875,0.9999999999999999,2.5,-28904879735008586e-32,0.9999999999999996
-0.25687499999999996,0.9999999999999997,2.5,-5905639428016758e-31,0.9999999999999994
-0.255,1,2.5,-7114993895602607e-31,0.9999999999999998
-0.253125,1,2.5,-5266687278942304e-31,0.9999999999999998
-0.25125,0.9999999999999999,2.5,-4722021536705719e-31,0.9999999999999996
-0.249375,1,2.5,-5060805791247015e-31,0.9999999999999998
-0.2475,1.0000000000000002,2.5,-6471312908669748e-31,1
-0.24562499999999998,1,2.5,-20488723918231906e-32,0.9999999999999998
-0.24374999999999997,0.9999999999999999,2.5,-4169879124341285e-31,0.9999999999999996
-0.241875,1.0000000000000002,2.5,-20347235731959392e-32,1
-0.24,1.0000000000000002,2.5,-18320431705970834e-32,1
-0.23812499999999998,1,2.5,1609459828987024e-31,0.9999999999999998
-0.23625000000000002,1.0000000000000002,2.5,4856807153048437e-31,1
-0.234375,1.0000000000000004,2.5,4636990991710211e-31,1.0000000000000002
-0.23249999999999998,1,2.5,7771143747438056e-31,0.9999999999999998
-0.23062499999999997,0.9999999999999999,2.5,1248562671188152e-30,0.9999999999999996
-0.22875,1,2.5,14536360448988351e-31,0.9999999999999998
-0.226875,1,2.5,20485096041782238e-31,0.9999999999999998
-0.22499999999999998,0.9999999999999999,2.5000000000000004,22629545977494546e-31,0.9999999999999996
-0.22312500000000002,1.0000000000000002,2.5000000000000004,2708391722770151e-30,1
-0.22124999999999997,1.0000000000000002,2.500000000000001,28507264137358657e-31,1
-0.219375,1.0000000000000004,2.5000000000000013,21528662949342016e-31,1.0000000000000002
-0.21749999999999997,1.000000000000001,2.5000000000000027,-8190714571721849e-31,1.0000000000000009
-0.21562500000000004,1.0000000000000027,2.5000000000000044,-8210189853831951e-30,1.0000000000000024
-0.2137500000000001,1.0000000000000047,2.5000000000000075,-2408323064084378e-29,1.0000000000000044
-0.21187500000000026,1.0000000000000084,2.500000000000013,-55100849099671223e-30,1.0000000000000082
-0.21000000000000052,1.0000000000000135,2.500000000000021,-11184577462819675e-29,1.0000000000000133
-0.20812500000000106,1.0000000000000215,2.500000000000033,-20922922154630023e-29,1.0000000000000213
-0.20625000000000182,1.000000000000033,2.50000000000005,-36840473967451327e-29,1.0000000000000329
-0.20437500000000308,1.0000000000000484,2.500000000000073,-6150187238155924e-28,1.0000000000000482
-0.20250000000000493,1.0000000000000664,2.5000000000001,-9764882150911883e-28,1.0000000000000662
-0.2006250000000074,1.0000000000000835,2.5000000000001252,-14734456507030341e-28,1.0000000000000833
-0.1987500000000106,1.0000000000000893,2.5000000000001337,-2103464992973106e-27,1.0000000000000888
-0.19687500000001418,1.0000000000000628,2.500000000000094,-28089681481961207e-28,1.0000000000000624
-0.19500000000001744,0.9999999999999639,2.4999999999999463,-3426155406129556e-27,0.9999999999999631
-0.19312500000001853,0.9999999999997217,2.499999999999583,-36013606537469104e-28,0.99999999999972
-0.19125000000001421,0.9999999999992167,2.4999999999988267,-2671826573653192e-27,0.9999999999992135
-0.18937499999999896,0.9999999999982622,2.4999999999973967,4970228792396224e-28,0.9999999999982556
-0.18749999999996367,0.9999999999965782,2.4999999999948748,7710651556640682e-27,0.9999999999965643
-0.18562499999989499,0.9999999999937746,2.4999999999906772,2165583320917588e-26,0.9999999999937461
-0.1837499999997742,0.9999999999893494,2.4999999999840554,46063205865112727e-27,0.9999999999892926
-0.18187499999957732,0.9999999999827344,2.499999999974163,8569783303575918e-26,0.9999999999826229
-0.17999999999927552,0.9999999999734247,2.499999999960255,1461523765545444e-25,0.9999999999732118
-0.17812499999884004,0.9999999999612683,2.4999999999421223,2328994075474661e-25,0.9999999999608711
-0.17624999999824933,0.9999999999469978,2.4999999999208975,3496887575111389e-25,0.9999999999462754
-0.17437499999751113,0.9999999999331364,2.499999999900415,4939415389389397e-25,0.9999999999318567
-0.17249999999669657,0.9999999999254068,2.499999999889334,6497572556618235e-25,0.9999999999232029
-0.17062499999598593,0.999999999934781,2.499999999904218,7784367321376953e-25,0.9999999999310973
-0.1687499999957379,0.9999999999802426,2.4999999999736717,8043471950530697e-25,0.9999999999742877
-0.1668749999965761,1.0000000000921911,2.5000000001434355,5973446224052435e-25,1.0000000000829223
-0.1649999999994894,1.0000000003161473,2.500000000481881,-4710173186942278e-26,1.0000000003023581
-0.16312500000593042,1.000000000715937,2.500000001084667,-1426944394572276e-24,1.0000000006965657
-0.16125000001789427,1.0000000013749617,2.5000000020764,-3946979163548988e-24,1.000000001349836
-0.15937500003794164,1.0000000023935314,2.5000000036062016,-8118646368593044e-24,1.000000002364894
-0.15750000006917425,1.0000000038795045,2.500000005832947,-14546453813771287e-24,1.000000003854838
-0.15562500011477035,1.0000000059287657,2.5000000088948484,-23821023874710933e-24,1.0000000059256438
-0.1537500001774765,1.0000000085915812,2.5000000128573463,-3639642230113324e-23,1.0000000086454695
-0.15187500025852382,1.0000000118208816,2.5000000176333206,-5234373437910914e-23,1.0000000119969044
