position,density,energy,velocity,pressure
-0.598125,0.5416666666666646,2.5,0,0.5416666666666645
-0.59625,0.6234064651471283,2.5,0,0.623406465147128
-0.594375,0.7005171413057901,2.5,0,0.70051714130579
-0.5925,0.7703979942388643,2.5,0,0.7703979942388642
-0.590625,0.8311091868041646,2.5,0,0.8311091868041643
-0.58875,0.881509753439799,2.5,0,0.8815097534397989
-0.5868749999999999,0.9213057874834562,2.5,0,0.9213057874834559
-0.585,0.9509978264877128,2.5,0,0.9509978264877126
-0.583125,0.9717366860627772,2.5,0,0.971736686062777
-0.5812499999999999,0.9851133610181321,2.5,0,0.985113361018132
-0.579375,0.9929167053408919,2.5,0,0.9929167053408917
-0.5775,0.9968959744118275,2.5,0,0.9968959744118274
-0.5756249999999999,0.9985634838898302,2.5,0,0.9985634838898299
-0.57375,0.9990652812231334,2.5,0,0.9990652812231331
-0.571875,0.9991356037723881,2.5,0,0.9991356037723879
-0.57,0.9991369369636721,2.5,0,0.999136936963672
-0.568125,0.9991736203259243,2.5,0,0.9991736203259242
-0.5662499999999999,0.999247438912948,2.5,0,0.9992474389129478
-0.564375,0.9993488272715997,2.5,0,0.9993488272715995
-0.5623876217297277,0.9994730761366949,2.4994479887050174,0.0013201402890770605,0.9992538001043003
-0.5605862220451016,0.9995901881994986,2.4995819668977886,0.00023360073979877144,0.999423355788012
-0.558743533749127,0.9997032925664717,2.4996977124545303,-0.00018953893432703385,0.9995818204686531
-0.5568804526544587,0.9998028548520109,2.499797270426784,-0.00031664148265164466,0.999720370496658
-0.5550070448918923,0.9998826537271045,2.4998768048932103,-0.0003028518353458765,0.999831294703396
-0.553126527549129,0.9999401623308946,2.499933964350295,-0.00017323582713591173,0.9999112138190724
-0.551239590094889,0.9999763551907213,2.49996951615343,9946102935465522e-20,0.9999615098307802
-0.5493521122740741,0.9999951978901154,2.4999872651312725,0.00033352490795175575,0.999987760218606
-0.5474719555529968,1.0000029110706452,2.4999934988755674,0.00036729611937525976,0.9999987368961522
-0.545596544106915,1.000006647701007,2.4999954565034117,0.00031765344613005064,1.0000044868575217
-0.543723856216524,1.000013031587655,2.4999997986054447,0.00023108030976111069,1.000014251888106
-0.5418526469676428,1.0000270194742003,2.5000115180678226,0.00012768930138321646,1.0000348927216078
-0.53998190767676,1.0000510182448448,2.500033090227475,25381713259090394e-21,1.0000696777217195
-0.5381109998432955,1.0000843996965074,2.5000640037207043,-675141078711082e-19,1.0001176255241828
-0.5362391752233717,1.0001235161145081,2.5001007651785208,-0.0001279469035368646,1.000173541133058
-0.5343654621280592,1.000162224420876,2.500137396307346,-0.00012203872523582432,1.0002287568759451
-0.5324885669196634,1.0001928401489657,2.5001663421213625,8166136541653732e-21,1.0002724641507468
-0.5306089433185052,1.0002090041968186,2.500181352275514,0.00028165638611540856,1.0002957242757355
-0.5287306884183696,1.000212707857796,2.5001847572365086,0.00045757894324945905,1.000301330912422
-0.526854980147821,1.0002108598633142,2.50018383929101,0.0004825450663465597,1.000298995416353
-0.524980862496106,1.000210542426597,2.5001858559325867,0.0004411698674767222,1.0002986858844
-0.5231075020264774,1.000216470054452,2.5001954200544216,0.00038108035455243716,1.0003070517213875
-0.5212342509357183,1.000229960556546,2.500213500090743,0.0003255664794353565,1.000325976160126
-0.5193607631014738,1.0002491636673052,2.5002377383341186,0.0002856257897744353,1.0003528932599286
-0.5174868787799871,1.0002703138306472,2.5002638317064045,0.00027136759335896315,1.0003825390665189
-0.5156125626817951,1.0002893494133165,2.5002872801271088,0.0002839712293995401,1.0004092214723246
-0.5137378947212717,1.0003031162026632,2.500304664998646,0.0003174276318970384,1.0004285100209596
-0.5118630452439968,1.0003099895213965,2.500314292718472,0.0003581647555856536,1.0004381121021664
-0.5099882019245754,1.0003099756233327,2.500316273966484,0.0003909382042851293,1.0004380192888847
-0.5081134952170931,1.000304398140602,2.5003121538411195,0.00040711075302241945,1.0004300726109838
-0.5062389659024531,1.0002953180011782,2.500304256365063,0.00040693760541315007,1.000417153516455
-0.5043645856296081,1.0002848555833224,2.500294929670862,0.000395031559728026,1.000402236450786
-0.502490280261863,1.0002745972153564,2.5002858931044134,0.00037760235062855814,1.0003875577654857
-0.5006159829248323,1.0002652652157806,2.50027788303623,0.0003601259444435126,1.000374151513202
-0.4987416438606206,1.0002567727863014,2.500270730379749,0.00034516969071342546,1.0003619209710946
-0.49686723990946613,1.0002485832638988,2.5002637798783023,0.0003332543555023484,1.0003501331325233
-0.4949927722670717,1.000240095701697,2.5002563307284302,0.00032346821509414767,1.000337953281598
-0.49311825510911844,1.0002308889902736,2.5002479072773394,0.00031444690144250735,1.0003247877079295
-0.4912437052028015,1.0002208102907248,2.5002383497896417,0.00030510736561692654,1.0003104118256758
-0.4893691370025236,1.000209949159546,2.500227776382418,0.00029469249457507386,1.0002949391494231
-0.48749455934470004,1.0001985522365742,2.5002164802041134,0.00028289689995017117,1.0002787063184786
-0.48561997423054204,1.0001869237993912,2.500204813499257,0.00026985705436935193,1.0002621366669833
-0.48374537929588746,1.0001753421918242,2.500193092181224,0.0002559630130673038,1.0002456241835724
-0.4818707698339452,1.000164009246162,2.500181539882151,0.00024168707624922328,1.0002294617456802
-0.47999614091223536,1.0001530363848554,2.500170275147244,0.00022744146468349594,1.0002138189321192
-0.4781214888661313,1.0001424596784665,2.5001593319377227,0.00021350052148840987,1.0001987595518476
-0.4762468121020493,1.0001322700969255,2.500148696669234,0.00019998435784313444,1.0001842808810446
-0.474372110974431,1.000122444879931,2.500138345085931,0.000186901371905218,1.0001703558419879
-0.47249738687217574,1.0001129700829177,2.5001282676215086,0.00017418593365505153,1.0001569644468487
-0.47062264172768026,1.0001038505455948,2.5001184794993887,0.00016177157164968165,1.0001441088217657
-0.46874787745788526,1.0000951090369643,2.5001090182793044,0.0001496360136106485,1.000131813557199
-0.4668730955433566,1.000086778638697,2.5000999337891847,0.00013780948387019618,1.0001201167239873
-0.46499829698623235,1.0000788931188291,2.500091276057924,0.00012636427741076652,1.0001090579070782
-0.46312348244827717,1.0000714789833305,2.500083085573349,0.00011538925451901093,1.000098668167575
-0.46124865244313534,1.0000645510049269,2.5000753879171165,0.00010496743350969754,1.0000889643405022
-0.4593738073075381,1.0000581113584714,2.5000681928409514,9517124125999027e-20,1.000079947867273
-0.45749894758026144,1.0000521514476075,2.5000614966212997,8603999431273636e-20,1.000071606987795
-0.45562407402292093,1.000046655094263,2.5000552860612983,7757884716554667e-20,1.0000639205823876
-0.45374918755753463,1.0000416018693785,2.5000495426507183,6976735482360832e-20,1.0000568621146522
-0.45187428920231254,1.0000369697623988,2.5000442458952454,625695418911899e-19,1.000050402703109
-0.4499993800108502,1.0000327368432826,2.5000393753849464,5594592064213126e-20,1.000044512942655
-0.448124460991184,1.0000288819515384,2.5000349116400464,4985586325683956e-20,1.0000391635755657
-0.4462495330025058,1.0000253846861253,2.5000308360667103,44258868608644425e-21,1.0000343253984796
-0.44437459685870323,1.0000222250481334,2.500027130453844,3912423855749899e-20,1.0000299688666778
-0.4424996533045027,1.000019383030879,2.500023776378209,34429445374766525e-21,1.0000260637572487
-0.44062470302266704,1.000016838337591,2.5000207547500097,30157264983836078e-21,1.0000225790851998
-0.43874974663339816,1.0000145703060115,2.5000180456101826,2629161352225721e-20,1.0000194833212428
-0.4368747847514706,1.0000125580307064,2.500015628183791,22814476709527236e-21,1.0000167448441057
-0.4349998179127585,1.0000107806170226,2.5000134811231156,1970782432963326e-20,1.0000143324985147
-0.43312484659565414,1.0000092174886435,2.500011582853973,16952663493793466e-21,1.000012216133072
-0.43124987128005804,1.000007848683729,2.500009911948333,14525231724029776e-21,1.0000103670286473
-0.4293748924275808,1.000006655098236,2.5000084474693858,12398594890333528e-21,1.000008758173875
-0.42749991047015595,1.0000056186604613,2.500007169260927,10544333770128156e-21,1.0000073643889593
-0.42562492580806605,1.0000047224455464,2.500006058176816,89340910745963e-19,1.0000061623409793
-0.4237499388133844,1.000003950743467,2.5000050962524583,7541247982858303e-21,1.000005130498552
-0.42187494979135937,1.0000032890912138,2.5000042668209144,63386358568764184e-22,1.0000042490620644
-0.41999995901384835,1.000002724276426,2.5000035545763932,5301841149728138e-21,1.0000034998917429
-0.41812496672822197,1.0000022443156051,2.5000029455872728,4410147959519708e-21,1.0000028664415492
-0.4162499731509631,1.0000018384069378,2.500002427260492,36456652945319856e-22,1.000002333695926
-0.41437497847406896,1.0000014968606488,2.5000019882651463,2993208680208128e-21,1.0000018881040067
-0.4124999828706871,1.0000012110173895,2.5000016184332177,24386009505729535e-22,1.000001517511721
-0.41062498648420986,1.0000009731634385,2.500001308653419,19700632173392315e-22,1.0000012110907868
-0.40874998942524327,1.0000007764482723,2.5000010507693156,15783976457557986e-22,1.0000009592624306
-0.40687499179669023,1.0000006148076706,2.5000008374885323,12542708576060824e-22,1.0000007536144422
-0.40499999369207057,1.0000004828938645,2.5000006623062503,988613154257738e-21,1.0000005868114274
-0.40312499519462935,1.000000376011441,2.50000051944163,7728089471118877e-22,1.0000004524972737
-0.401249996376468,1.0000002900587897,2.5000004037850565,5991207836304543e-22,1.0000003451937622
-0.39937499730293763,1.000000221475689,2.500000310853753,4607165048485093e-22,1.0000002602024385
-0.39749999802154173,1.0000001671959717,2.5000002367517844,3508928224338486e-22,1.0000001935139209
-0.39562499857190486,1.00000012460329,2.5000001781303127,26398650222947964e-23,1.000000141726038
-0.39374999898855756,1.0000000914879559,2.5000001321447782,19553518246932146e-23,1.00000010197039
-0.3918749992998278,1.0000000660029933,2.5000000964067497,14191869927006426e-23,1.0000000718456372
-0.38999999952964465,1.0000000466182,2.500000068929623,10031312268365461e-23,1.0000000493553742
-0.3881249997002982,1.000000032074446,2.5000000480719233,6771314902734378e-23,1.0000000328512892
-0.3862499998244749,1.0000000213410367,2.500000032482821,4272687512220906e-23,1.0000000209827205
-0.38437499991030777,1.0000000135777898,2.5000000210529185,2457031120068249e-23,1.0000000126526385
-0.3824999999662203,1.0000000081025981,2.500000012872088,1205145047628312e-23,1.000000006979549
-0.3806249999998146,1.0000000043643102,2.500000007194689,395096443132555e-23,1.0000000032641927
-0.37875000001736175,1.0000000019201827,2.500000003411616,-8096823340729272e-25,1.0000000009595325
-0.37687500002452223,1.0000000004172132,2.500000001028198,-3284650007748197e-24,0.9999999996434938
-0.3750000000253253,0.9999999995770272,2.4999999996469624,-4251589845409888e-24,0.9999999989952939
-0.3731250000227108,0.9999999991837663,2.499999998954071,-4301198975261224e-24,0.9999999987757112
-0.37125000001851843,0.9999999990742211,2.4999999987081223,-3839626051441874e-24,0.9999999988109654
-0.36937500001394463,0.9999999991294206,2.499999998730199,-31552426624862438e-25,0.9999999989795227
-0.36750000000968047,0.9999999992668942,2.499999998894089,-2424555715268674e-24,0.9999999992009246
-0.365625000006057,0.9999999994329934,2.4999999991159703,-17476576675728088e-25,0.9999999994257633
-0.3637500000031813,0.9999999995956101,2.4999999993442312,-11739357518625544e-25,0.9999999996268847
-0.3618750000010859,0.9999999997378369,2.4999999995503916,-7267672309044377e-25,0.9999999997921607
-0.3599999999996671,0.99999999985282,2.4999999997215623,-39913532611996226e-26,0.9999999999188854
-0.35812499999878655,0.9999999999398652,2.4999999998546554,-17005683115924697e-26,1.000000000009732
-0.3562499999982999,1.0000000000016525,2.4999999999521605,-16577138994312195e-27,1.000000000069985
-0.35437499999808936,1.0000000000423799,2.500000000019271,8116245780619403e-26,1.0000000001057978
-0.3524999999980651,1.0000000000666036,2.500000000062054,1390276099966635e-25,1.0000000001231648
-0.35062499999814967,1.000000000078575,2.50000000008637,1704364756693327e-25,1.000000000127377
-0.34874999999830153,1.0000000000819145,2.500000000097318,18261602753435728e-26,1.0000000001227916
-0.3468749999984844,1.0000000000795095,2.5000000000990372,18238307856286598e-26,1.0000000001128007
-0.34499999999868,1.0000000000735496,2.500000000094714,173528282914667e-24,1.0000000000999194
-0.34312499999887536,1.0000000000656275,2.5000000000867124,15905224654767272e-26,1.0000000000859264
-0.3412499999990616,1.0000000000568658,2.5000000000767395,14139729220967362e-26,1.0000000000720244
-0.3393749999992338,1.0000000000480278,2.5000000000659983,12243685625364727e-26,1.0000000000589762
-0.33749999999938746,1.0000000000396139,2.5000000000553175,10335665353165363e-26,1.000000000047226
-0.33562499999952067,1.0000000000319325,2.500000000045243,8504349076894245e-26,1.0000000000369889
-0.333749999999633,1.0000000000251528,2.5000000000361178,6816493925840506e-26,1.0000000000283225
-0.33187499999972564,1.0000000000193425,2.500000000028125,53133588112741575e-27,1.0000000000211744
-0.3299999999998005,1.0000000000144984,2.500000000021333,4017484895418395e-26,1.0000000000154259
-0.32812499999985995,1.0000000000105649,2.500000000015727,2931758574023188e-26,1.0000000000109166
-0.32624999999990684,1.0000000000074563,2.50000000001123,20310892652547124e-27,1.0000000000074696
-0.3243749999999421,1.0000000000050684,2.5000000000077276,1322629793898968e-26,1.0000000000049059
-0.3224999999999674,1.0000000000032907,2.5000000000050866,7969872243380358e-27,1.0000000000030578
-0.3206249999999844,1.0000000000020133,2.5000000000031646,42693768148328096e-28,1.0000000000017726
-0.3187499999999951,1.0000000000011338,2.500000000001825,18260043785557908e-28,1.0000000000009188
-0.31687500000000135,1.0000000000005607,2.5000000000009392,30995621981068825e-29,1.0000000000003861
-0.31500000000000467,1.0000000000002145,2.500000000000394,-5583836564514349e-28,1.000000000000083
-0.31312500000000615,1.0000000000000302,2.5000000000000933,-10037259163185103e-28,0.9999999999999397
-0.3112500000000067,0.9999999999999539,2.4999999999999587,-12049700660038065e-28,0.9999999999998994
-0.30937500000000684,0.9999999999999446,2.499999999999927,-1272497147023338e-27,0.9999999999999207
-0.30750000000000677,0.9999999999999702,2.4999999999999516,-1266850785728729e-27,0.9999999999999735
-0.3056250000000066,1.0000000000000069,2.499999999999993,-12115952622546589e-28,1.000000000000035
-0.3037500000000063,1.0000000000000342,2.50000000000002,-11023629639185134e-28,1.000000000000087
-0.30187500000000583,1.0000000000000338,2.500000000000005,-9119243137767942e-28,1.0000000000001112
-0.30000000000000493,0.9999999999999863,2.499999999999919,-6041724556416586e-28,1.0000000000000895
-0.2981250000000033,0.9999999999998717,2.499999999999731,-12531830837399544e-29,1.0000000000000004
-0.29625000000000046,0.9999999999996647,2.4999999999994054,5979168285790465e-28,0.999999999999817
-0.2943749999999961,0.9999999999993383,2.499999999998903,16482758024846409e-28,0.9999999999995071
-0.29249999999998944,0.999999999998867,2.499999999998188,31458567318948733e-28,0.9999999999990377
-0.2906249999999796,0.9999999999982313,2.4999999999972413,5224004375503887e-27,0.9999999999983789
-0.2887499999999658,0.9999999999974333,2.4999999999960685,8016195124686017e-27,0.9999999999975168
-0.28687499999994703,0.9999999999965122,2.4999999999947446,11636083443284876e-27,0.9999999999964705
-0.2849999999999233,0.9999999999955735,2.4999999999934412,16008188638515125e-27,0.9999999999953184
-0.2831249999998963,0.9999999999948268,2.4999999999924927,20644503206191655e-27,0.9999999999942387
-0.2812499999998698,0.9999999999946321,2.4999999999924603,24635470167205243e-27,0.9999999999935557
-0.2793749999998507,0.999999999995558,2.4999999999942184,26391411083568916e-27,0.9999999999938047
-0.2774999999998503,0.9999999999984457,2.4999999999990474,23410851435110563e-27,0.999999999995807
-0.27562499999988543,1.0000000000044684,2.500000000008709,12037854422333948e-27,1.0000000000007465
-0.27374999999998034,1.0000000000151767,2.5000000000255027,-12896184557326957e-27,1.0000000000102425
-0.27187500000016857,1.0000000000325238,2.500000000052279,-58143915843016323e-27,1.0000000000264153
-0.27000000000049346,1.0000000000588571,2.5000000000924043,-13188299729729714e-26,1.0000000000519325
-0.26812500000100953,1.0000000000968805,2.500000000149653,-24386025209980207e-26,1.0000000000900366
-0.2662500000017741,1.000000000149559,2.5000000002280327,-40335745361641793e-26,1.0000000001445337
-0.2643750000028451,1.0000000002199703,2.5000000003314926,-6183500124509217e-25,1.0000000002197271
-0.2625000000042632,1.0000000003110754,2.5000000004635448,-8915472510870686e-25,1.0000000003202667
-0.26062500000604777,1.000000000425409,2.5000000006267444,-12190805489876183e-25,1.0000000004508833
-0.25875000000827564,1.0000000005646656,2.5000000008220558,-1605334747729426e-24,1.0000000006159742
-0.25687500001099633,1.0000000007291832,2.500000001048078,-20458860028636846e-25,1.000000000819023
-0.2550000000142338,1.0000000009172971,2.50000000130012,-2528114505794049e-24,1.0000000010618115
-0.253125000017979,1.0000000011245451,2.5000000015690858,-3030452205721532e-24,1.000000001343378
-0.2512500000221759,1.0000000013426436,2.500000001840088,-35225679071964663e-25,1.0000000016586426
-0.24937500002670354,1.0000000015581405,2.50000000209063,-3965426687722975e-24,1.0000000019965767
-0.24750000003134437,1.000000001750618,2.5000000022882025,-43103760174037206e-25,1.000000002337806
-0.24562500003584306,1.0000000018903548,2.5000000023871602,-4485300134788083e-24,1.0000000026515403
-0.24375000003984057,1.0000000019354784,2.500000002324938,-4403368427911686e-24,1.000000002891871
-0.24187500004287113,1.0000000018289634,2.5000000020181403,-39685217362687576e-25,1.000000002993793
-0.2400000000440024,1.0000000014963484,2.5000000013598602,-3003777959056396e-24,1.0000000028697793
-0.23812500004221496,1.0000000008456784,2.5000000002205476,-13320431124669093e-25,1.0000000024083555
-0.2362500000356067,0.999999999771568,2.4999999984553307,1376834823163269e-24,1.0000000014764183
-0.23437500002169673,0.9999999981657943,2.4999999959215424,553087135724251e-23,0.9999999999275578
-0.2324999999976469,0.9999999959374755,2.4999999925110705,11612301718721488e-24,0.9999999976193577
-0.23062499995992577,0.999999993046656,2.4999999882031942,2016679699329116e-23,0.9999999944436385
-0.22874999990491943,0.9999999895560989,2.499999983144712,3168952567266976e-23,0.9999999903751897
-0.22687499983179596,0.9999999857065005,2.499999977764223,46093290381595914e-24,0.999999985546008
-0.22499999974233595,0.9999999820202,2.4999999729266817,6250092337968237e-23,0.9999999803528534
-0.22312499964281127,0.9999999794361674,2.4999999701305153,7904450950476768e-23,0.9999999756044845
-0.22124999954480917,0.9999999794731181,2.499999971740222,9248500173317478e-23,0.9999999727098053
-0.21937499947008238,0.999999984411134,2.4999999812372247,9743802088215853e-23,0.9999999739023536
-0.21749999945245524,0.9999999974730394,2.500000003457758,85938865716539e-21,0.999999982487793
-0.21562499954531222,1.0000000229925898,2.5000000447945405,46514184732466025e-24,1.0000000031072365
-0.21374999982906256,1.0000000665836775,2.5000001133788476,-3696161474563695e-23,1.0000000420367532
-0.21187500042396973,1.0000001353285544,2.500000219266357,-18690754602590543e-23,1.0000001075443368
-0.2100000014577309,1.000000238003107,2.5000003746540336,-4261873938040671e-22,1.000000210317648
-0.20812500309715073,1.00000038535847,2.5000005941617487,-7828538491262066e-22,1.000000363968155
-0.20625000551494385,1.0000005904736138,2.5000008952122186,-12825952961649354e-22,1.0000005855992096
-0.20437500888690005,1.000000869184411,2.500001298535605,-194656906633441e-20,1.0000008964044762
