position,density,energy,velocity,pressure
-0.598125,0.5416666666666646,2.5,0,0.5416666666666645
-0.59625,0.6234064651471283,2.5,0,0.623406465147128
-0.594375,0.7005171413057901,2.5,0,0.70051714130579
-0.5925,0.7703979942388643,2.5,0,0.7703979942388642
-0.590625,0.8311075850351792,2.5,0,0.831107585035179
-0.58875,0.8814951260864543,2.5,0,0.8814951260864541
-0.5868749999999999,0.9212559197601524,2.5,0,0.9212559197601523
-0.585,0.9508863381454412,2.5,0,0.9508863381454411
-0.583125,0.9715422049750733,2.5,0,0.9715422049750729
-0.5812499999999999,0.9848277413432192,2.5,0,0.9848277413432189
-0.579375,0.9925493311151743,2.5,0,0.9925493311151742
-0.5775,0.9964724886747535,2.5,0,0.9964724886747532
-0.5756249999999999,0.9981198617245087,2.5,0,0.9981198617245086
-0.57375,0.9986396746324834,2.5,0,0.9986396746324832
-0.571875,0.9987603062920813,2.5,0,0.9987603062920811
-0.57,0.9988323708042212,2.5,0,0.9988323708042208
-0.568125,0.9989456381366222,2.5,0,0.9989456381366218
-0.5662499999999999,0.9990884269252375,2.5,0,0.9990884269252372
-0.564375,0.9992422164681906,2.5,0,0.9992422164681902
-0.5622592987627313,0.999411325378347,2.4993678620791195,0.0009816559086557877,0.9991589498795571
-0.5605735026980072,0.9995364245567455,2.4995302582178445,9409094668698822e-20,0.9993488863949173
-0.5587718550759292,0.9996564574607686,2.4996541237333214,-0.00022849889510197284,0.9995184658157732
-0.5569229184255675,0.9997626697385487,2.49975987761877,-0.00036016707632412047,0.9996669424830443
-0.5550460849025092,0.9998497682145902,2.499847208644355,-0.0003526526740813472,0.9997888689814536
-0.5531455608858579,0.9999133275471436,2.499911636087506,-0.0002004105820608702,0.9998780635574649
-0.5512257728118318,0.9999503794864568,2.4999492170835476,7984827323322116e-20,0.9999300510721181
-0.5493160806950578,0.9999614590425494,2.4999601525739212,0.00030862760720199995,0.9999455045181832
-0.5474316182780583,0.9999526592481465,2.499951057739063,0.0003728250607431514,0.9999331630908239
-0.5455613587603796,0.9999337395634029,2.499931935936945,0.00033177805059578567,0.999906745558815
-0.5436996552148727,0.9999159140791162,2.4999140513363685,0.0002193806287776589,0.9998819055858005
-0.5418428484851849,0.999909220124611,2.4999073867445576,6360072622847813e-20,0.9998726092703798
-0.5399873416021901,0.9999195329632106,2.4999177506371058,-0.00010691030076878315,0.9998870196292321
-0.538130481136631,0.9999464807318992,2.499944805491543,-0.0002579136334478791,0.9999246368953608
-0.5362673821240673,0.9999830583256575,2.4999816809165325,-0.0003462637477099401,0.9999757577155974
-0.5343900643980372,1.0000168533473217,2.5000160740701616,-0.0002832479550069891,1.0000231304052962
-0.5324866616061642,1.0000322270249684,2.500031935715306,37373480868709655e-21,1.0000448045508246
-0.5305722481092049,1.0000169753822252,2.5000160278269803,0.00040520596627845727,1.0000233725440377
-0.5286841274447341,0.9999809060010674,2.4999789585016083,0.0004803413169139625,0.9999728014962224
-0.526816565205231,0.9999438172344335,2.499941343367919,0.0003643956764434081,0.9999209996684962
-0.5249575420766734,0.9999221601344241,2.4999195225986157,0.0001733065893993709,0.9998908528735031
-0.523101267111717,0.9999240250616999,2.4999214102933194,-39239758769242934e-21,0.9998935611002437
-0.5212421381496597,0.999947503128847,2.4999450683984734,-0.00021116816519091495,0.9999264431648838
-0.5193765847917916,0.999982607698263,2.499980592486749,-0.00029768602085363243,0.9999756066008554
-0.5175014272929864,1.000016108363159,2.5000147016226077,-0.0002526952028522125,1.0000225955577529
-0.5156152423767114,1.0000367776370707,2.5000358600456414,-5578738250048437e-20,1.0000516533627462
-0.5137221499460988,1.000038979770267,2.5000380628299195,0.0001922152685589513,1.0000547884225728
-0.5118329554336992,1.0000242381143127,2.500022855254741,0.0003243643316469028,1.0000341147295837
-0.509953643009619,1.0000001584314375,2.4999982452659273,0.00033240456812116205,1.0000003570501879
-0.5080825037660813,0.9999771320336206,2.499974946239685,0.0002565470933483877,0.9999680955839181
-0.5062157373463617,0.9999646469496697,2.499962558138373,0.00013236914366883615,0.9999505843042975
-0.5043505944912029,0.9999679855379172,2.4999663380057124,-618200027470817e-20,0.9999551862745496
-0.5024846419797999,0.9999860699570173,2.4999851044199444,-0.00012561601110298694,0.9999803967590748
-0.5006150511910964,1.0000117068664853,2.5000115150033393,-0.00018042908825577516,1.0000161881210676
-0.49873969852401545,1.0000349161290307,2.5000353733175453,-0.0001366973068917669,1.000048623481362
-0.49685794423662105,1.0000476958840128,2.500048418911034,14596114914726242e-21,1.0000664888433743
-0.4949728852681091,1.0000470602623939,2.5000475090290606,0.0001768517089895541,1.0000655681061865
-0.49309028100839053,1.0000355117667616,2.5000352607733474,0.00024565105731671295,1.0000493610810466
-0.4912131792777313,1.0000193475800272,2.5000182641665574,0.00023443741733191348,1.0000267069018915
-0.4893409023307691,1.0000058184143084,2.5000040134557513,0.00017289658526568343,1.0000077582071392
-0.4874706324846577,1.0000004576691492,2.4999981578494936,9036646019938014e-20,1.0000002431004986
-0.48560080472258904,1.0000053113029732,2.5000027590592198,465090871277041e-20,1.0000070164614807
-0.48373021788388354,1.0000184536925194,2.500015825979646,-5873756133528404e-20,1.0000253901724365
-0.48185778240861543,1.0000350540134644,2.500032417293566,-8343734517132886e-20,1.000048619923359
-0.4799826721413103,1.0000495662413649,2.500046873484399,-530898888848592e-19,1.0000689568916825
-0.478104669748984,1.0000579284342626,2.500055056765913,4232640074831995e-20,1.0000807181491567
-0.4762249144794073,1.0000588379717401,2.5000556692069003,0.000142073676968629,1.0000820773204875
-0.4743457194065045,1.0000538511560857,2.5000503714150217,0.0001856816322863222,1.0000752131580546
-0.47246933785611084,1.000046497876078,2.5000428555722376,0.0001806816216659395,1.0000650729868552
-0.4705956642837631,1.0000408072007259,2.500037275651912,0.000146299680918956,1.0000572950585382
-0.46872312746122574,1.0000398243901651,2.500036713564579,0.00010097111691780417,1.0000561304426647
-0.46685079046606565,1.0000445921714536,2.5000421625103173,55895195240013195e-21,1.0000630256913117
-0.4649781058361564,1.0000538865491873,2.500052279027142,2184635787613636e-20,1.0000762537549461
-0.4631045519427819,1.000064848930032,2.5000640559622056,10423774479339735e-21,1.0000917962198177
-0.46122980994653207,1.0000742298064862,2.5000741155487214,27447814244864896e-21,1.000105082707671
-0.4593537866891308,1.0000796169838089,2.5000799740568294,7053538537570032e-20,1.0001127120461173
-0.4574765901648193,1.0000801337628058,2.5000807573508683,0.00011871785427859087,1.0001134349509695
-0.4555992433811933,1.0000764758847156,2.5000772315704967,0.00014724406913802445,1.0001082119029407
-0.4537234269509149,1.0000704594885437,2.500071325219901,0.0001496971043599375,1.0000995857705095
-0.45184906295707006,1.000064283539233,2.5000653389946903,0.00013468821895092425,1.0000906453467893
-0.4499754072730765,1.0000597776682287,2.500061156489235,0.00011244923308965213,1.0000839703793292
-0.4481018997498692,1.0000578547619317,2.5000596806516153,9107505072169748e-20,1.000080865147254
-0.44622823403061046,1.0000583237100744,2.5000606451342486,7320182481232453e-20,1.0000810933648934
-0.44435416583980647,1.000060129841538,2.500062874735271,629338581101105e-19,1.0000832096224213
-0.4424795139676851,1.0000619165533748,2.5000648797045053,6146157047460901e-20,1.0000853404203565
-0.44060412375468316,1.0000626358885119,2.5000654970946496,6870193892070059e-20,1.0000860352911878
-0.4387278299515514,1.000061914221371,2.500064278775065,8641955039163423e-20,1.0000847774893704
-0.43685150075397944,1.000060083826283,2.5000615356079727,0.00010092436065708366,1.0000820295409614
-0.4349760282986748,1.0000579705954946,2.5000581248986906,9871863150943426e-20,1.0000789385501576
-0.43310137615678085,1.0000565567143835,2.5000550966118373,8593402492342249e-20,1.000076865926063
-0.4312271907267407,1.0000566388523338,2.500053335836474,7009470843871856e-20,1.0000769133569054
-0.42935312860357583,1.000058583998773,2.500053305987315,5485939971686925e-20,1.000079585823052
-0.4274789712199721,1.0000622532495878,2.5000549634548093,4107689656596457e-20,1.0000846876223162
-0.4256045638925493,1.000067121398075,2.5000578724422677,3258342367868404e-20,1.0000914899747566
-0.4237297808767171,1.0000725616868698,2.500061488748494,33274599979310124e-21,1.0000991280821059
-0.4218544712300703,1.000078161636161,2.5000654748705156,5139624919176144e-20,1.0001070409718444
-0.4199787751037362,1.0000838909204313,2.5000698654946394,917909621951112e-19,1.0001152037413368
-0.41810315729087016,1.0000900771019756,2.5000750376385787,0.00013070014518784268,1.0001240900041488
-0.41622789760831735,1.0000972449040368,2.500081542033172,0.00014940263179312073,1.0001344428389711
-0.41435306198046146,1.000105895424923,2.500089878875112,0.000148373079928706,1.0001469630456492
-0.41247852267440926,1.0001162972879702,2.5001002892609216,0.0001381000353923395,1.00016201528527
-0.4106040973134955,1.0001283478465703,2.5001126210135416,0.00012738999850949362,1.0001794337147463
-0.4087296475089768,1.0001415463645364,2.5001263108375116,0.00012138351567844163,1.000198485961898
-0.4068550861214656,1.0001551007181329,2.500140503187945,0.00012428518866273357,1.0002180257917819
-0.4049803644066728,1.000168150257524,2.5001542871511595,0.00013972825494765683,1.0002368103693653
-0.4031055082608544,1.0001800044900735,2.5001669457494615,0.00016688567488190177,1.0002538401343497
-0.40123060284816114,1.0001902913641714,2.500178105993008,0.00019749488892349806,1.0002685704888432
-0.39935572660820856,1.0001989821052175,2.500187757172218,0.00022544104711234714,1.0002809487231945
-0.3974809407375644,1.0002063156354264,2.500196163680177,0.0002461072093803581,1.0002913086113612
-0.395606267162221,1.000212666881336,2.5002037200506977,0.0002577016655302517,1.0003001849186353
-0.39373168233983213,1.000218404143348,2.500210796739898,0.0002620348212880834,1.000308111401949
-0.3918571458149393,1.0002237745732647,2.5002176185205425,0.0002626329184478804,1.0003154576295235
-0.3899826245008602,1.0002288483067558,2.5002242085500184,0.00026248088451782844,1.0003223477502234
-0.38810810030368076,1.0002335365259833,2.500230415109458,0.00026291188536773204,1.0003286826461892
-0.386233566132191,1.0002376651170297,2.5002360004861997,0.0002643137213479155,1.0003342397993835
-0.38435902299109354,1.0002410623419182,2.5002407436436798,0.00026635546886359874,1.0003387935171162
-0.38248447655412504,1.0002436260253171,2.5002445168743526,0.00026826435689554105,1.0003422080191815
-0.38060993256380127,1.0002453521963168,2.5002473161724397,0.0002693658092824198,1.0003444782395388
-0.37873539450533666,1.000246326314906,2.500249247420416,0.0002693204733445733,1.0003457194038514
-0.3768608626011803,1.0002466908214431,2.50025048507244,0.0002683074305533758,1.0003461238938833
-0.37498633750478866,1.0002466053784929,2.5002512228346,0.0002662499948204195,1.000345907848005
-0.37311181846308356,1.0002462132256684,2.5002516323706883,0.00026317016806821155,1.0003452658343395
-0.3712373038241688,1.0002456218920317,2.5002518399864924,0.000259188133293446,1.0003443447072764
-0.36936279178748427,1.0002448995444946,2.500251922672459,0.00025444499590947955,1.0003432384482214
-0.3674882809959969,1.0002440831289332,2.500251918617181,0.00024903458203647905,1.0003419989099538
-0.3656137707101598,1.0002431919847241,2.500251844337115,0.0002429949368328983,1.0003406539787283
-0.363739260736208,1.000242240730349,2.5002517107301885,0.00023631595498448794,1.0003392248136411
-0.36186475121238765,1.0002412476970037,2.500251533420147,0.0002289639226709979,1.0003377372407438
-0.3599902424183228,1.0002402383958677,2.5002513368216723,0.00022090251916036816,1.0003362266298235
-0.3581157346482856,1.0002392453526443,2.500251153718762,0.00021210450291035652,1.000334737924341
-0.3562412281561972,1.0002383060250373,2.5002510225498185,0.00020255539012077844,1.0003333230402642
-0.3543667231551107,1.0002374602322788,2.5002509841817395,0.00019225187290335192,1.0003320375135263
-0.3524922198465115,1.0002367480023517,2.500251079285543,0.00018119789666590715,1.0003309376002398
-0.3506177184550318,1.0002362082161524,2.500251346755564,0.00016940070011843276,1.000330078367106
-0.34874321926266044,1.0002358780332143,2.500251823115581,0.00015686810368178007,1.0003295128083691
-0.3468687226292191,1.0002357928741448,2.5002525426106548,0.00014360720905837128,1.000329291713899
-0.34499422899893134,1.0002359866775077,2.500253537623237,0.00012962437574436588,1.0003294639210025
-0.34311973889711594,1.000236492171855,2.500254839086908,0.00011492613607154001,1.0003300766094585
-0.34124525292031105,1.0002373409873455,2.500256476681966,9952050112934044e-20,1.0003311754040054
-0.33937077172241437,1.00023856354464,2.500258478741021,8341820586624784e-20,1.0003328041978377
-0.3374962960058264,1.0002401887439882,2.5002608719001196,6663354273361295e-20,1.000335004722293
-0.33562182651333095,1.000242243521005,2.5002636805849527,4918479815255324e-20,1.0003378159441183
-0.3337473640209436,1.0002447523417426,2.5002669264278,3109442419120912e-20,1.0003412733801094
-0.331872909331963,1.0002477366902682,2.5002706276836464,12389091840060218e-21,1.0003454083954149
-0.3299984632710371,1.0002512145748383,2.5002747986779488,-6900234165874621e-21,1.0003502475184802
-0.3281240266757687,1.0002552000560303,2.500279449288702,-26738138217577595e-21,1.0003558117774178
-0.326249600388576,1.000259702786852,2.500284584448368,-4708444673419185e-20,1.000362116046443
-0.3243751852478164,1.0002647275516448,2.5002902036469576,-6789381444525226e-20,1.0003691683881526
-0.322500782076692,1.0002702737943179,2.500296300421748,-891153038709827e-19,1.0003769693842146
-0.32062639167194046,1.0002763351307598,2.5003028618230365,-0.00011069197749985228,1.0003855114553086
-0.3187520147922015,1.0002828988386745,2.5003098678414433,-0.00013256048545538235,1.0003947781719653
-0.3168776521456334,1.0002899453132277,2.5003172907761995,-0.00015465067590036166,1.0004047435505043
-0.3150033043769313,1.0002974474792408,2.5003250945341824,-0.00017688528477311657,1.0004153713193038
-0.313128972052444,1.0003053701439522,2.5003332338528725,-0.00019917979544911222,1.0004266141118963
-0.311254655643193,1.0003136692611783,2.5003416534379044,-0.00022144247443710175,1.0004384125029937
-0.30938035550305254,1.0003222910255989,2.5003502869405,-0.00024357420156269482,1.0004506937336899
-0.3075060718396971,1.000331170594472,2.5003590555129436,-0.000265467134528815,1.0004633698662948
-0.30563180467376166,1.000340230085505,2.50036786542583,-0.00028700106881106616,1.000476335020857
-0.303757553781847,1.0003493753553183,2.50037660400863,-0.0003080362221371783,1.0004894612015554
-0.3018833186218879,1.0003584909673016,2.5003851329805316,-0.00032840140954234435,1.0005025921932829
-0.30000909824354827,1.0003674328201833,2.5003932783401526,-0.00034787796282378795,1.0005155350136916
-0.29813489120182274,1.0003760180968533,2.500400816278774,-0.0003661841702700964,1.0005280485436623
-0.2962606957189594,1.0003840121826175,2.5004074547017145,-0.00038301076356131073,1.0005398287557214
-0.29438650977489106,1.0003911126174847,2.500412810676968,-0.0003980482854983881,1.0005504902094677
-0.29251233145339384,1.0003969297814566,2.500416383972415,-0.00041107614967476685,1.0005595426684672
-0.2906381591695995,1.0004009631224118,2.500417525829229,-0.0004220290069961003,1.0005663603530084
-0.2887639894349889,1.0004025694946306,2.5004153992806084,-0.0004305210055050259,1.0005701385001475
-0.28688981990012313,1.000400919936449,2.5004089268651524,-0.00043649980241727664,1.0005698320229917
-0.2850156416651026,1.000394942205336,2.500396722691299,-0.0004387118809811635,1.000564072842127
-0.2831414447860092,1.0003832475817729,2.500377007247937,-0.00043589497867256273,1.000551064332163
-0.2812672102830207,1.000364045089975,2.500347508761044,-0.00042540026061042044,1.0005284577607692
-0.27939291165473656,1.0003350540817342,2.500305364202765,-0.0004036236798697086,1.0004932262940158
-0.27751851207491,1.0002934311303795,2.5002470392137766,-0.0003655944779675603,1.0004415587958517
-0.27564396066041963,1.0002357275907368,2.5001682868917006,-0.00030437520298587156,1.0003687958498464
-0.27376920351271866,1.0001578911967939,2.5000641620098363,-0.0002132553995095609,1.0002694260738652
-0.27189419596614595,1.0000553146821187,2.499929094749359,-8780867149682091e-20,1.0001371462715534
-0.2700188831420652,0.9999229159745054,2.4997570062341428,7639263862616394e-20,0.9999649638155871
-0.26814320824250487,0.9997552204567068,2.499541431314008,0.00028427812396684645,0.9997453000836444
-0.26626709579501445,0.999546405071008,2.499275599393814,0.0005413666926975609,0.9994700407751679
-0.2643904485887447,0.9992902718069934,2.498952431940446,0.0008548050745097752,0.9991304895471212
-0.262513096576271,0.9989801234360715,2.498564420164232,0.0012368939822340504,0.9987171910877866
-0.26063483066377335,0.998608566025347,2.4981034075220476,0.001703497387139655,0.9982196581717475
-0.2587554131269794,0.9981672817239985,2.4975603219659757,0.0022726876263274836,0.99762606620927
-0.25687455453946095,0.9976468445000984,2.4969249395403494,0.0029655236378277492,0.9969230174913264
-0.25499196692763637,0.9970366870081597,2.496185807991865,0.0038026842203404037,0.9960955212166945
-0.2531074407149605,0.9963252939672927,2.4953304241372924,0.004798785920178383,0.9951272901045495
-0.2512208230600518,0.9955006190394373,2.4943456727447115,0.005962028659517489,0.9940013474066599
-0.24933198585766975,0.9945506872443984,2.4932185007577403,0.00729479923066912,0.9927008833177378
-0.24744083714991558,0.993464290570233,2.4919367345431906,0.008793639481467209,0.9912102249130026
-0.2455472328209638,0.9922315576471981,2.490489793599905,0.0104538890013854,0.9895156177877827
-0.2436508542915639,0.990844231163426,2.4888691065873085,0.01227730478210469,0.9876055905292609
-0.2417511645766767,0.9892955804030485,2.4870681278362214,0.014276861855063121,0.985470802761932
-0.23984749041488798,0.9875799855851467,2.485081961470613,0.016476572728252988,0.9831034339925228
-0.23793900402531246,0.985692136110574,2.4829064922302932,0.01891262032420553,0.9804960554220239
-0.23602480398162431,0.9836261619384753,2.4805373515154674,0.021629525965652895,0.9776404313754904
-0.23410416914996118,0.9813750725676916,2.4779691114780835,0.02466775628310213,0.9745267680618299
-0.2321767036179296,0.9789305647616643,2.475194783865805,0.02805296010718309,0.9711435110603357
-0.2302422825978729,0.9762832536518092,2.472205741064395,0.03179064033681637,0.9674777684683583
-0.22830109810281904,0.9734236930024177,2.4689925381141253,0.03586027902583829,0.963516831335002
-0.22635349883291572,0.9703437143968249,2.4655462172271596,0.04021845122881772,0.9592501336525465
-0.2243996914688018,0.9670377875838013,2.46185984941279,0.04481024631440354,0.9546712146659487
-0.22243940204871165,0.9635040707100182,2.457929967868598,0.049586065403330756,0.9497792043765182
-0.22047184335940007,0.9597452971234878,2.45375799964352,0.05451337998524154,0.944579998287122
-0.21849579586154352,0.955769028046634,2.449351095061246,0.05958578826156513,0.9390864779555151
-0.21650959220091334,0.9515867540742204,2.444721652159256,0.06483066309210783,0.9333170847860893
-0.21451148515828655,0.9472127734411429,2.439886400127126,0.07030288844100843,0.9272940292152185
-0.21250021219732773,0.9426628706662067,2.43486493343084,0.07606798120653355,0.9210412039698103
-0.2104751530449244,0.9379519516759937,2.429676729191175,0.08218665911289127,0.9145807269656397
-0.20843647045751265,0.9330919196484188,2.4243380705220563,0.08869649109833556,0.9079299378686357
-0.2063850743687816,0.9280901062547482,2.418859338774638,0.0955970002723011,0.9010993237370595
-0.2043222929510043,0.9229484804727687,2.4132431776609304,0.10284446162968854,0.8940916906243555
