position,density,energy,velocity,pressure
-0.598125,0.5416666666666646,2.5,0,0.5416666666666645
-0.59625,0.6234064651471283,2.5,0,0.623406465147128
-0.594375,0.7005171413057901,2.5,0,0.70051714130579
-0.5925,0.7703979942388643,2.5,0,0.7703979942388642
-0.590625,0.8311096977157896,2.5,0,0.8311096977157894
-0.58875,0.8815141411610047,2.5,0,0.8815141411610045
-0.5868749999999999,0.9213207039679957,2.5,0,0.9213207039679956
-0.585,0.9510315926594557,2.5,0,0.9510315926594556
-0.583125,0.9717968414691449,2.5,0,0.9717968414691446
-0.5812499999999999,0.9852042495350646,2.5,0,0.9852042495350642
-0.579375,0.993037848417181,2.5,0,0.9930378484171807
-0.5775,0.9970418282138425,2.5,0,0.9970418282138422
-0.5756249999999999,0.9987246567957664,2.5,0,0.9987246567957662
-0.57375,0.9992306537943044,2.5,0,0.9992306537943042
-0.571875,0.9992947094573537,2.5,0,0.9992947094573535
-0.57,0.9992820646149697,2.5,0,0.9992820646149695
-0.568125,0.9993012333565283,2.5,0,0.999301233356528
-0.5662499999999999,0.9993586726112983,2.5,0,0.9993586726112982
-0.564375,0.9994490126551745,2.5,0,0.9994490126551744
-0.5624223810755399,0.9995681735347773,2.499533600866551,0.0015746708897426969,0.9993865528958175
-0.5605927621829896,0.9996937495142671,2.4996699015470862,0.0004004457100054505,0.9995677513645036
-0.558738519621818,0.9998226346419059,2.499800182554089,-0.00014308536111829335,0.9997505908341034
-0.5568718632902595,0.9999438093762013,2.4999204536315225,-0.0003185017615862862,0.999922087952227
-0.5549985879551879,1.0000484495251376,2.50002364173443,-0.0003189088071087694,1.0000703177355363
-0.5531213336684797,1.000130832817969,2.5001045786124947,-0.0001801387313494778,1.0001872000276049
-0.5512415364475244,1.000188806405675,2.5001614969277037,0.0001018260043592606,1.0002695978487595
-0.5493615731276293,1.000223720214122,2.50019615951794,0.00040607291042683516,1.0003193410704845
-0.5474835955088488,1.0002398871943965,2.5002132631668657,0.000566944860508754,1.0003424672304961
-0.545607656279568,1.0002435451286147,2.5002193150524357,0.0006090419603509234,1.000347759959362
-0.5437331939734863,1.000241565042691,2.5002212600443605,0.0005821282496518845,1.0003449210601116
-0.541859695459503,1.000240162262405,2.5002251598279552,0.0005191811308684798,1.0003427422141307
-0.5399866206972727,1.0002437757038911,2.5002350925954313,0.00044853816794258725,1.0003475192743494
-0.5381136175484993,1.0002542740769338,2.500252416606942,0.00038407675289620476,1.0003619309827145
-0.5362403964736194,1.000270609743571,2.500275493146532,0.00033212451287033344,1.0003845456627019
-0.5343666684889392,1.0002889771217882,2.5002999200763036,0.0003048896751488966,1.0004100385792178
-0.5324921453020282,1.0003034544288103,2.500319242737375,0.00032343126292130913,1.0004300903206718
-0.5306170910912341,1.0003081242017593,2.5003271982232467,0.0003700444384759506,1.0004363624249175
-0.5287420538473638,1.0003020556345645,2.5003229782514467,0.0004062906932031351,1.0004274991458015
-0.526867239766315,1.0002878246171811,2.5003095821403973,0.00041854703248863257,1.0004070739556052
-0.5249926684055299,1.0002690859553818,2.5002911431086243,0.00040834790646609726,1.0003801997535677
-0.5231182698397051,1.0002491570437597,2.5002713630633338,0.00038380148420990185,1.0003515434794255
-0.5212439439739052,1.0002302983442213,2.5002527187262937,0.00035458740347014744,1.0003243158145243
-0.5193696081494159,1.000213537726719,2.500236279049035,0.00032701984009044394,1.0003000191563958
-0.5174952198061482,1.0001988936895951,2.5002219783150084,0.00030196958950913446,1.0002787460779663
-0.5156207531023463,1.0001857897673074,2.5002091040433405,0.0002804902404950007,1.0002597433557658
-0.5137462048007394,1.0001734646551994,2.5001967695110228,0.00026253631950470374,1.0002419759808836
-0.511871586286013,1.0001612753932636,2.5001842553104794,0.0002469313139276086,1.0002245486343182
-0.5099969168395427,1.0001488630804614,2.500171189134227,0.00023218348263274677,1.000206940578317
-0.5081222164691274,1.000136187210645,2.500157573947826,0.00021708737875065817,1.0001890609174995
-0.50624749981393,1.0001234603143203,2.5001437031145293,0.00020100156225590584,1.0001711666549513
-0.5043727737663712,1.0001110248224478,2.5001300118536576,0.00018395413020473437,1.0001536999095488
-0.5024980375465737,1.0000992196043166,2.500116920380077,0.00016648327552595894,1.0001371084682937
-0.5006232863056871,1.0000882817494685,2.5001047209314384,0.00014932736198185604,1.000121711720111
-0.4987485144363221,1.0000783131400348,2.500093541527333,0.00013316699569379702,1.0001076532084427
-0.49687371832640564,1.0000693026873018,2.500083374826175,0.00011842375440243279,1.0000949281281755
-0.49499889723434226,1.0000611712432075,2.500074133111419,0.00010522142415778435,1.0000834413953197
-0.4931240526332263,1.0000538154821565,2.5000657014155743,9346844651393948e-20,1.0000730645400397
-0.4912491872120817,1.0000471393241603,2.500057975269344,8296093574949864e-20,1.0000636762354145
-0.48937430419486,1.0000410698358233,2.50005087952188,7347427351063067e-20,1.000055182484705
-0.48749940661982816,1.0000355598241544,2.500044370995816,6481993189503507e-20,1.0000475195302332
-0.48562449648745115,1.0000305818496236,2.5000384307497194,5682409578920804e-20,1.0000406458467523
-0.48374957543602937,1.000026118744982,2.5000330521231886,4940656074706873e-20,1.0000345299972586
-0.4818746446538677,1.0000221546287498,2.5000282294077776,4255654258854436e-20,1.0000291395991263
-0.4799997049890037,1.000018668716477,2.5000239499433947,3630155679887543e-20,1.0000244343329572
-0.47812475708686825,1.000015632719837,2.5000201906159516,3067220661158599e-20,1.0000203638170355
-0.47624980162355707,1.0000130113751182,2.5000169182279746,2568496257302509e-20,1.0000168694989047
-0.47437483941156083,1.0000107648855683,2.500014092298365,21318097920818252e-21,1.0000138887757022
-0.47249987101220703,1.000008851938404,2.5000116686853753,175594496828122e-19,1.0000113594766304
-0.47062489706359567,1.0000072322835583,2.500009602806433,14377074104616198e-21,1.0000092233620954
-0.4687499183347435,1.0000058684057052,2.5000078518719024,11713924176198715e-21,1.0000074280795002
-0.46687493557709475,1.000004726287658,2.500006376104481,9504203776368076e-21,1.0000059276697217
-0.46499994950009244,1.0000037755263773,2.5000051392162526,7678636233392168e-21,1.000004682098375
-0.46312496073317666,1.0000029891143714,2.500004108472395,6174977343774671e-21,1.0000036563525179
-0.46124996981081057,1.0000023431219445,2.5000032545882718,4941785177860933e-21,1.0000028195076125
-0.4593749770796882,1.000001816407454,2.500002551589979,39247120779539585e-22,1.0000021439875397
-0.457499982846841,1.000001390391504,2.5000019766712356,30820906715784594e-22,1.0000016050848146
-0.45562498738010104,1.0000010488635753,2.500001510011981,23840202431348733e-22,1.000001180690665
-0.45374999090479357,1.000000777777903,2.500001134520605,18082010203534717e-22,1.0000008511436356
-0.45187499361335703,1.000000565044359,2.5000008355294367,133787183112825e-20,1.000000599142683
-0.4499999956924182,1.0000004003190366,2.50000060047319,9533503711752069e-22,1.000000409674518
-0.4481249972881693,1.0000002747952514,2.5000004185716462,6407108035513273e-22,1.0000002699158188
-0.44624999844601193,1.0000001809997858,2.5000002805366264,40104317218363194e-23,1.0000001690927802
-0.44437499923945384,1.0000001126044378,2.500000178323219,22706418179915681e-23,1.000000098300523
-0.4424999997470862,1.0000000642587699,2.5000001049349203,10813062962926241e-23,1.0000000502890785
-0.44062500004706745,1.0000000314467636,2.5000000542838814,3174872733240401e-23,1.000000019224549
-0.4387500001987164,1.0000000103742186,2.500000021103694,-12437423069821267e-24,1.0000000004563965
-0.43687500025952086,0.9999999978876853,2.5000000009029595,-35141628530581814e-24,0.9999999903168767
-0.4350000002653071,0.9999999914164925,2.499999989940316,-4373769572531825e-23,0.9999999859589144
-0.43312500023918005,0.9999999889261585,2.4999999852012373,-4355694969760982e-23,0.9999999852272015
-0.4312500001975294,0.9999999888714575,2.499999984360465,-38512780253472166e-24,0.9999999865506577
-0.4293750001514435,0.9999999901389062,2.499999985717683,-313337523322677e-22,0.9999999888426497
-0.4275000001079498,0.9999999919742848,2.4999999881026995,-2379726609093429e-23,0.9999999914006321
-0.4256250000706138,0.9999999939045247,2.4999999907665127,-16913178873241306e-24,0.9999999938108098
-0.42375000004170754,0.9999999956637129,2.4999999932746895,-11302123065267408e-24,0.99999999586433
-0.421875000021035,0.9999999971289524,2.4999999954130567,-7066307865890328e-24,0.9999999974882954
-0.4200000000070211,0.9999999982687783,2.4999999971106863,-4002112269007903e-24,0.9999999986924593
-0.41812499999809377,0.9999999991043375,2.499999998381198,-1870357132314498e-24,0.9999999995304802
-0.4162499999928707,0.9999999996821795,2.4999999992811452,-4453933866917251e-25,1.0000000000735874
-0.4143749999902177,1.0000000000564868,2.4999999998825078,4604523111265238e-25,1.0000000003939349
-0.41249999998920484,1.000000000278702,2.5000000002563167,10076785216945699e-25,1.0000000005554068
-0.4106249999893104,1.0000000003925678,2.500000000464475,12855367231803295e-25,1.0000000006098022
-0.4087499999900866,1.0000000004327187,2.5000000005569882,13783360643712995e-25,1.0000000005964704
-0.4068749999912155,1.0000000004252716,2.5000000005723177,13516637847747638e-25,1.000000000543814
-0.4049999999925097,1.0000000003893044,2.5000000005391647,12430764321974494e-25,1.0000000004715317
-0.40312499999382523,1.0000000003384197,2.5000000004784866,10871549288325402e-25,1.0000000003927885
-0.4012499999950701,1.0000000002820453,2.50000000040521,9103700650907195e-25,1.0000000003159757
-0.39937499999618886,1.000000000226445,2.5000000003295915,7322997833910548e-25,1.000000000246059
-0.3974999999971516,1.0000000001754994,2.50000000025827,5663189916010809e-25,1.000000000185583
-0.39562499999794853,1.000000000131314,2.5000000001951284,42050473131586876e-26,1.0000000001354268
-0.39374999999859517,1.0000000000947076,2.5000000001419913,2965422711680511e-25,1.0000000000953633
-0.3918749999990943,1.000000000065612,2.500000000099224,19730098646029243e-26,1.0000000000644924
-0.38999999999945795,1.0000000000433942,2.5000000000662204,12270556190095672e-26,1.0000000000415545
-0.3881249999997095,1.0000000000271072,2.5000000000417995,6958062675769039e-26,1.0000000000251592
-0.38624999999987264,1.0000000000156781,2.5000000000245106,3407173201992216e-26,1.0000000000139346
-0.38437499999997154,1.0000000000080447,2.500000000012859,11796656959687718e-27,1.0000000000066316
-0.3825000000000254,1.0000000000032416,2.5000000000054525,-9713384995029324e-28,1.0000000000021771
-0.38062500000004945,1.0000000000004492,2.500000000001087,-72570000380008085e-28,0.9999999999996954
-0.378750000000055,0.9999999999990101,2.499999999998788,-9435872010550395e-27,0.9999999999985074
-0.3768750000000506,0.9999999999984258,2.4999999999978075,-9290303646228961e-27,0.9999999999981121
-0.3750000000000418,0.9999999999983401,2.499999999997606,-8000531987109702e-27,0.9999999999981601
-0.3731250000000319,0.9999999999985116,2.4999999999978155,-6316051147909458e-27,0.9999999999984208
-0.3712500000000228,0.9999999999987882,2.4999999999981997,-4663366558320965e-27,0.9999999999987526
-0.3693750000000155,0.9999999999990805,2.499999999998621,-32699868345197455e-28,0.9999999999990766
-0.36750000000001,0.9999999999993427,2.4999999999990066,-21813516703664645e-28,0.9999999999993547
-0.3656250000000059,0.9999999999995568,2.499999999999325,-13695963317405638e-28,0.9999999999995749
-0.36375000000000324,0.9999999999997194,2.4999999999995683,-7912356400872302e-28,0.999999999999738
-0.3618750000000014,0.9999999999998364,2.4999999999997455,-39685119552755035e-29,0.9999999999998527
-0.36000000000000026,0.9999999999999155,2.4999999999998663,-14254459200867224e-29,0.9999999999999284
-0.3581249999999997,0.9999999999999664,2.499999999999944,961300988522817e-29,0.9999999999999758
-0.35624999999999934,0.9999999999999961,2.499999999999991,905383490449702e-28,1.0000000000000029
-0.3543749999999993,1.000000000000012,2.5000000000000164,12501317969579537e-29,1.0000000000000162
-0.35249999999999926,1.0000000000000189,2.5000000000000275,13019531789272788e-29,1.0000000000000215
-0.3506249999999993,1.0000000000000202,2.5000000000000298,11880337291260754e-29,1.0000000000000215
-0.3487499999999995,1.0000000000000184,2.500000000000027,9946779362106754e-29,1.000000000000019
-0.3468749999999996,1.0000000000000153,2.500000000000023,782225761785899e-28,1.0000000000000155
-0.3449999999999997,1.0000000000000115,2.500000000000018,5798275354370246e-29,1.0000000000000115
-0.3431249999999998,1.0000000000000087,2.5000000000000133,40572424505841275e-30,1.0000000000000084
-0.3412499999999999,1.000000000000006,2.5000000000000093,26793743272973345e-30,1.0000000000000058
-0.3393749999999999,1.000000000000004,2.500000000000006,16409496312840086e-30,1.0000000000000038
-0.3374999999999999,1.0000000000000022,2.500000000000004,9295253909676313e-30,1.000000000000002
-0.335625,1.0000000000000013,2.500000000000002,45003084119509566e-31,1.000000000000001
-0.33375,1.0000000000000009,2.5000000000000013,16161811833679355e-31,1.0000000000000007
-0.331875,1.0000000000000002,2.500000000000001,-1461907073875518e-31,1
-0.32999999999999996,0.9999999999999999,2.5000000000000004,-11333924085512883e-31,0.9999999999999996
-0.328125,1.0000000000000002,2.5,-16725093951551056e-31,1
-0.32625,1,2.5,-15179858537310811e-31,0.9999999999999998
-0.32437499999999997,0.9999999999999999,2.5,-13160561577935898e-31,0.9999999999999996
-0.3225,1,2.5,-1065380258670462e-30,0.9999999999999998
-0.320625,1.0000000000000002,2.5,-10599684472170325e-31,1
-0.31875,1,2.5,-30015837980352406e-32,0.9999999999999998
-0.31687499999999996,0.9999999999999999,2.5,-3542162541959885e-31,0.9999999999999996
-0.315,1.0000000000000002,2.5,-18805575914515906e-32,1
-0.313125,1.0000000000000002,2.5,-7483276181331647e-32,1
-0.31124999999999997,1,2.5,15655370241027082e-32,0.9999999999999998
-0.309375,1.0000000000000002,2.5,1378851182311739e-31,1
-0.3075,1.0000000000000004,2.5,-13169354491989468e-32,1.0000000000000002
-0.305625,1,2.5,-6428686628878688e-32,0.9999999999999998
-0.30374999999999996,0.9999999999999999,2.5,13591015015095558e-32,0.9999999999999996
-0.301875,1.0000000000000002,2.5,-6179197273693873e-32,1
-0.3,1.0000000000000002,2.5,-5150557041588209e-32,1
-0.298125,1,2.5,-16958662180938356e-32,0.9999999999999998
-0.29625,1.0000000000000002,2.5,1090390187626242e-32,1
-0.294375,1.0000000000000004,2.5,-17147417374635987e-32,1.0000000000000002
-0.2925,1,2.5,-16932465612978895e-32,0.9999999999999998
-0.29062499999999997,0.9999999999999999,2.5,47147818964463113e-33,0.9999999999999996
-0.28875,1.0000000000000002,2.5,-23726014978275886e-32,1
-0.286875,1.0000000000000002,2.5,-4046667671859412e-31,1
-0.285,1,2.5,-4451093857590362e-31,0.9999999999999998
-0.283125,1.0000000000000002,2.5,-10337185744988197e-33,1
-0.28125,1.0000000000000004,2.5,3563359753382101e-31,1.0000000000000002
-0.279375,1,2.4999999999999996,8060499550356931e-31,0.9999999999999998
-0.27749999999999997,0.9999999999999999,2.4999999999999996,14721419372335588e-31,0.9999999999999996
-0.275625,0.9999999999999998,2.4999999999999996,2197252226802568e-30,0.9999999999999996
-0.27375,0.9999999999999996,2.499999999999999,35073886919768766e-31,0.9999999999999994
-0.271875,0.9999999999999992,2.499999999999999,50062285731248086e-31,0.9999999999999991
-0.26999999999999996,0.9999999999999991,2.4999999999999987,7329411562962904e-30,0.9999999999999989
-0.26812499999999995,0.999999999999999,2.4999999999999982,10271452652041322e-30,0.9999999999999987
-0.26624999999999993,0.9999999999999984,2.4999999999999982,13515931703310942e-30,0.9999999999999982
-0.2643749999999999,0.9999999999999986,2.4999999999999982,16433437895248345e-30,0.9999999999999983
-0.2624999999999999,0.9999999999999993,2.4999999999999996,1780983616610973e-29,0.9999999999999991
-0.26062499999999994,1.0000000000000013,2.5000000000000027,1475492816916824e-29,1.000000000000001
-0.25875,1.0000000000000053,2.500000000000009,3292785225705679e-30,1.0000000000000049
-0.2568750000000001,1.000000000000013,2.5000000000000204,-23360686554637826e-30,1.0000000000000127
-0.25500000000000034,1.0000000000000258,2.5000000000000395,-7443539053530302e-29,1.000000000000025
-0.25312500000000077,1.000000000000046,2.5000000000000693,-16247960995853516e-29,1.000000000000045
-0.2512500000000014,1.000000000000076,2.500000000000114,-3037409743125895e-28,1.0000000000000748
-0.2493750000000025,1.0000000000001175,2.5000000000001767,-5159480577953853e-28,1.0000000000001166
-0.247500000000004,1.0000000000001736,2.5000000000002602,-816528601166934e-27,1.000000000000174
-0.245625000000006,1.0000000000002434,2.5000000000003637,-12154275409995164e-28,1.0000000000002458
-0.24375000000000852,1.0000000000003235,2.500000000000481,-17065043712849781e-28,1.0000000000003302
-0.24187500000001147,1.0000000000004035,2.500000000000597,-22606439178269613e-28,1.0000000000004179
-0.24000000000001456,1.000000000000463,2.500000000000679,-28164136792565157e-28,1.00000000000049
-0.23812500000001732,1.0000000000004674,2.5000000000006746,-32532277873758536e-28,1.0000000000005145
-0.23625000000001886,1.00000000000036,2.500000000000497,-33716408589569444e-28,1.0000000000004365
-0.23437500000001774,1.0000000000000557,2.5000000000000178,-2863539432542222e-27,1.0000000000001743
-0.23250000000001184,0.9999999999994356,2.4999999999990563,-12798677908817268e-28,0.9999999999996086
-0.23062499999999808,0.9999999999983367,2.49999999999737,20050991102449363e-28,0.9999999999985764
-0.22874999999997242,0.9999999999965533,2.499999999994654,7821769835009137e-27,0.9999999999968648
-0.22687499999992958,0.9999999999938436,2.499999999990554,17160990634046585e-27,0.9999999999942162
-0.22499999999986273,0.9999999999899564,2.4999999999847082,31291564497146225e-27,0.9999999999903488
-0.2231249999997643,0.9999999999846906,2.499999999976845,5155633070656274e-26,0.9999999999850085
-0.22124999999962572,0.9999999999780077,2.499999999966953,792886603010396e-25,0.9999999999780727
-0.21937499999943982,0.9999999999702138,2.499999999955559,11542626680482735e-26,0.9999999999697203
-0.21749999999920253,0.9999999999622423,2.499999999944164,1599702127156981e-25,0.9999999999607077
-0.21562499999892903,0.9999999999560548,2.499999999935842,20879001271965984e-26,0.9999999999527596
-0.21374999999866004,0.9999999999551809,2.4999999999360503,25224806755772615e-26,0.999999999949116
-0.21187499999847384,0.9999999999653936,2.4999999999536344,2727933536192556e-25,0.9999999999552314
-0.2099999999985062,0.9999999999954992,2.5000000000019744,2410973076873632e-25,0.9999999999796259
-0.20812499999896897,1.0000000000581488,2.500000000100147,11241941843605755e-26,1.0000000000348195
-0.2062500000001684,1.0000000001705218,2.5000000002738307,-1766907061057152e-25,1.0000000001382268
-0.20437500000252076,1.0000000003546536,2.5000000005556227,-7107634649436744e-25,1.0000000003128175
-0.20250000000658924,1.0000000006372018,2.5000000009844214,-1601244727058381e-24,1.0000000005873728
-0.20062500001304065,1.0000000010483685,2.5000000016034396,-29723911677763776e-25,1.0000000009960808
-0.19875000002263535,1.0000000016196438,2.500000002456335,-4957583723838662e-24,1.0000000015771477
-0.19687500003611852,1.000000002379996,2.500000003580914,-767177977002909e-23,1.000000002370022
-0.19500000005406637,1.0000000033501149,2.500000004999836,-11174210794252095e-24,1.000000003410736
-0.19312500007651742,1.000000004534327,2.5000000067078867,-15385095451064333e-24,1.0000000047247914
-0.19125000010365775,1.0000000059096996,2.5000000086552165,-2022254402027194e-23,1.0000000063167545
-0.18937500013518999,1.000000007411781,2.500000010725972,-25467935192604118e-24,1.000000008155592
-0.18750000016992302,1.0000000089166166,2.5000000127119657,-3068082076553478e-23,1.0000000101549442
-0.18562500020573705,1.0000000102186672,2.500000014281132,-3518834854068742e-23,1.0000000121474193
