position,density,energy,velocity,pressure
-0.598125,0.5416666666666646,2.5,0,0.5416666666666645
-0.59625,0.6234064651471283,2.5,0,0.623406465147128
-0.594375,0.7005171413057901,2.5,0,0.70051714130579
-0.5925,0.7703979942388643,2.5,0,0.7703979942388642
-0.590625,0.831108220893033,2.5,0,0.8311082208930328
-0.58875,0.8815011324588743,2.5,0,0.8815011324588742
-0.5868749999999999,0.9212765304841755,2.5,0,0.9212765304841752
-0.585,0.9509323833556317,2.5,0,0.9509323833556316
-0.583125,0.9716221235733178,2.5,0,0.9716221235733176
-0.5812499999999999,0.9849440562555559,2.5,0,0.9849440562555557
-0.579375,0.9926969152445927,2.5,0,0.9926969152445926
-0.5775,0.9966393429312799,2.5,0,0.9966393429312796
-0.5756249999999999,0.9982899769380817,2.5,0,0.9982899769380816
-0.57375,0.9987968540183949,2.5,0,0.9987968540183947
-0.571875,0.9988918177953002,2.5,0,0.9988918177952999
-0.57,0.9989315067517317,2.5,0,0.9989315067517315
-0.568125,0.9990125786269088,2.5,0,0.9990125786269086
-0.5662499999999999,0.9991292175077837,2.5,0,0.9991292175077836
-0.564375,0.9992661435603931,2.5,0,0.9992661435603929
-0.5623142397729729,0.99942284106022,2.4993888565199445,0.0010355174149663713,0.9991789355609352
-0.5605781021863036,0.9995504134966344,2.4995450552472827,8460705495185357e-20,0.9993687692124853
-0.5587588450476081,0.9996715085169532,2.4996695737205714,-0.00024319523434807415,0.9995396256839075
-0.5569032045495619,0.9997766317625001,2.4997746112821972,-0.00035636361580307786,0.9996867337785103
-0.5550275743965905,0.9998601039125256,2.4998583520461124,-0.00032145609346622523,0.9998036525795955
-0.5531361151629447,0.9999189888388781,2.4999178714873675,-0.00014653885889141617,0.9998862883572014
-0.551231432557587,0.9999530089999066,2.4999522763471607,0.00012198013550998779,0.9999340406619092
-0.5493325394245997,0.9999649670980242,2.499964115466024,0.00028862014830394363,0.9999507562464854
-0.5474506129505984,0.999961150050335,2.4999599835852706,0.00031954167410525394,0.9999453551312008
-0.5455779900678371,0.9999497124258083,2.4999481882166803,0.00027657697996638143,0.999929290841771
-0.5437107041467023,0.9999390863700097,2.4999372100056267,0.00018617445432488614,0.9999143498558873
-0.541846405629333,0.9999364260339162,2.4999342162195193,7020163504782166e-20,0.9999105156715389
-0.5399827379513777,0.9999458973972768,2.499943381973056,-5563199835713419e-20,0.9999236055705004
-0.5381185403791655,0.999967361622198,2.4999646051029627,-0.00017296743653627913,0.9999534521122937
-0.5362511006632029,0.9999960427542872,2.4999931692376998,-0.00024447616531342574,0.999993436444832
-0.534376535200283,1.0000232584688953,2.5000204191455357,-0.00021237948085741498,1.000031481488189
-0.5324884917436968,1.0000379186095945,2.500035095793791,2422636060245328e-20,1.000052075807562
-0.5305917053247676,1.0000312365306951,2.500027951868042,0.00030182788150257857,1.0000428011444629
-0.5287075111838933,1.0000094557284898,2.500005527932237,0.00037071893301791924,1.000012452138106
-0.526834668471228,0.999986161062437,2.499981901532801,0.00029610465506677404,0.9999801354295534
-0.5249668961479089,0.9999730006689949,2.499968793140187,0.00017045802794607703,0.9999621054785267
-0.5231007036301926,0.9999758517813949,2.499972008361203,27266665277269315e-21,0.999966517218445
-0.5212336116608466,0.9999937177211025,2.499990453792469,-8890275386321363e-20,0.9999919343340202
-0.5193638461176249,1.0000200573060443,2.5000174827790977,-0.00015214512598930548,1.0000291846798295
-0.5174902686284772,1.000046070761659,2.500044163381322,-0.00013797974902631817,1.0000659300362855
-0.5156124412779022,1.000064210964612,2.500062796193352,-3644018995291002e-20,1.0000915620204447
-0.5137307055944915,1.000070402350879,2.5000692035520378,0.00011989464430610028,1.0001003222957199
-0.5118479923385081,1.0000648135199686,2.500063578366712,0.0002322731245318142,1.0000924102631876
-0.5099694397938107,1.0000513513018099,2.5000500281290496,0.00026003916071210735,1.000073308277325
-0.5080951872664617,1.0000359864725084,2.500034750227198,0.000228276550443028,1.0000514059066268
-0.5062231421905555,1.000024639875401,2.5000237935805956,0.00016646080023368281,1.0000350151919721
-0.504352047481008,1.000021237138274,2.5000211024845727,9321773325082708e-20,1.000029661933978
-0.5024808276447036,1.0000263539929433,2.5000271504375795,26434292859801332e-21,1.0000361954883714
-0.5006085788730635,1.0000370838152426,2.500038821009254,-16007022533872725e-21,1.0000506009791774
-0.49873458282189953,1.000048562288775,2.5000509838290257,-19131888808413137e-21,1.000066120633843
-0.4968586061463676,1.00005645739907,2.500059060305891,1864235069217032e-20,1.000076724728376
-0.4949806445152937,1.0000586616041995,2.5000607880477568,8954793778840282e-20,1.000079478301336
-0.4931018403901944,1.00005566785639,2.500056633394559,0.00015300187802651472,1.000075071640601
-0.4912248760434005,1.0000499667290983,2.500049195185333,0.00016413172674803082,1.000066985905811
-0.4893503615186625,1.0000448703299551,2.500041955522595,0.00013615797732933257,1.0000598417692903
-0.48747684490571713,1.0000432579478618,2.5000379550533616,9374178091636943e-20,1.0000576418402243
-0.4856036847045663,1.0000466551571252,2.5000388599605707,4953841430710349e-20,1.0000624956682116
-0.48373040826299535,1.0000548512466032,2.5000445656842523,1185566882534466e-20,1.0000740904054815
-0.48185668437698337,1.0000661698616633,2.500053475287862,-11386609935424322e-21,1.00009007244238
-0.479982233972843,1.0000783061486829,2.5000633566174586,-12191366491967673e-21,1.000107217702055
-0.4781069680689618,1.0000893492502771,2.5000723831152465,1500136048893345e-20,1.0001228605326764
-0.47623088287270743,1.0000984523668146,2.500079810259191,7778743482671834e-20,1.0001358300372447
-0.4743543345256834,1.0001059590663108,2.500086093063499,0.0001672276315177522,1.0001466247702775
-0.4724783403260818,1.0001131001156691,2.5000925583482805,0.00021896097465027897,1.000156983765093
-0.47060343223820866,1.0001214368243023,2.5001008160229747,0.00021642547094546363,1.0001691016184393
-0.4687290687720847,1.0001322498214587,2.500112129028562,0.00019666120735350068,1.0001847698240878
-0.4668549109691754,1.0001460587037565,2.500126929153611,0.00017413238520293326,1.000204702368243
-0.4649807541111746,1.0001624178626252,2.5001446263452447,0.0001564170383880125,1.0002282493134964
-0.4631064623963426,1.0001800461510142,2.500163768473805,0.00014983008420015934,1.0002535799410153
-0.46123196217169693,1.0001972598789406,2.500182515164494,0.00015849168513556425,1.0002782934658343
-0.45935723879886486,1.000212535676839,2.500199237860693,0.0001834953057433093,1.000300214200861
-0.45748233823440615,1.0002249215748122,2.5002129479944637,0.00022281456499698686,1.0003179736650791
-0.4556073888389085,1.0002341639015964,2.5002234184592926,0.00026588018586270475,1.0003311928532275
-0.45373254151488157,1.0002406144529892,2.5002310694892174,0.00029863802896885064,1.0003403547534213
-0.45185786434290226,1.0002450027334255,2.500236711695105,0.00031486346989099116,1.0003464862095426
-0.44998332008214725,1.0002481570186836,2.5002412377253527,0.000318647811902368,1.0003507660736488
-0.448108850520178,1.000250753534218,2.500245348878304,0.00031690694834786014,1.0003541710362582
-0.446234410746704,1.0002531579366252,2.500249386676809,0.00031352208082811986,1.0003572494862276
-0.444359967592751,1.0002553921894797,2.5002533055563294,0.0003110547797225317,1.000360070136418
-0.44248550342877047,1.0002572246237178,2.500256783775116,0.0003102987682890866,1.0003623425742765
-0.4406110157911748,1.0002583339531792,2.5002594161318124,0.0003110720780674528,1.000363641740867
-0.4387365094070649,1.0002584600852342,2.5002608874450223,0.0003126056674675364,1.0003636163474674
-0.4368619919527365,1.000257480074795,2.5002610559473606,0.00031402644733187935,1.0003620957782746
-0.43498747068058097,1.0002554161385322,2.5002599571191455,0.00031461710329275873,1.0003591036546278
-0.4331129502153315,1.0002524007161169,2.5002577580123995,0.00031397111554693613,1.0003548122914847
-0.4312384323105375,1.0002486219933204,2.500254689627602,0.00031198479773951855,1.0003494701350506
-0.42936391601353424,1.0002442698599054,2.5002509808995144,0.00030876499585592366,1.0003433294510844
-0.427489398609037,1.0002394968127293,2.500246811542917,0.00030455445552910414,1.0003365939564013
-0.4256148766879382,1.0002344010420308,2.5002422923858556,0.0002996425719115506,1.0003293960545478
-0.4237403472224932,1.0002290306569435,2.5002374718598093,0.0002942644629917362,1.0003218021020384
-0.4218658080524707,1.0002234009077153,2.500232358346745,0.00028855870507216034,1.0003138349418255
-0.4199912579673199,1.0002175138025642,2.5002269449268613,0.0002825751977455356,1.0003054998631058
-0.41811669647752236,1.0002113728645063,2.5002212275196807,0.000276308199418941,1.000296804378844
-0.4162421234926732,1.000204991091183,2.5002152143446374,0.000269729553831561,1.0002877689843095
-0.4143675390444799,1.0001983928325506,2.5002089279074684,0.0002628141704567831,1.0002784296473364
-0.41249294309847145,1.0001916115587155,2.5002024021079774,0.0002555549470540854,1.0002688346513662
-0.41061833546686155,1.000184685799119,2.500195677273216,0.0002479665449144905,1.000259038941426
-0.4087437158140034,1.0001776551466888,2.5001887953800703,0.00024008234727254557,1.0002490985909844
-0.4068690837327494,1.0001705573347046,2.5001817966140845,0.00023194885215090504,1.0002390667994243
-0.40499443881363983,1.000163426699765,2.5001747175959306,0.0002236188086251693,1.0002289918382807
-0.40311978070429433,1.0001562938590973,2.500167591044226,0.00021514540878476017,1.0002189166881585
-0.40124510914730627,1.0001491861736316,2.5001604463506952,0.0002065784546107392,1.0002088797565858
-0.399370423998447,1.000142128526047,2.5001533105006315,0.0001979627583367423,1.000198916021404
-0.39749572520180193,1.000135144034327,2.500146208889344,0.00018933833945994528,1.0001890580729376
-0.3956210127889473,1.0001282544952086,2.500139165803016,0.0001807406918303064,1.000179336762199
-0.39374628686261093,1.0001214805177163,2.500132204532505,0.0001722014552271817,1.0001697813909514
-0.39187154757535153,1.000114841419061,2.50012534721795,0.0001637492490232803,1.0001604195397076
-0.38999679511886626,1.0001083550006344,2.5001186145681644,0.00015541023779841288,1.0001512767011589
-0.3881220297188163,1.0001020373158716,2.5001120255834075,0.0001472085615956784,1.0001423758863426
-0.38624725162438456,1.000095902504617,2.5001055973615185,0.00013916620718171203,1.0001337373233319
-0.38437246111246365,1.0000899627233866,2.500099345013083,0.00013130327680693996,1.0001253783043975
-0.3824976584911225,1.000084228164234,2.5000932816702033,0.0001236383189369243,1.0001173131819618
-0.3806228440967444,1.0000787071342412,2.5000874185528312,0.00011618834918669725,1.0001095534783293
-0.3787480182906006,1.000073406163051,2.500081765055135,0.00010896877864219288,1.0001021080612438
-0.37687318145779614,1.0000683301132174,2.500076328826081,0.0001019932945089761,1.0000949833423942
-0.37499833399902416,1.0000634822807137,2.5000711158347046,9527380291636616e-20,1.0000881834707422
-0.37312347632524645,1.0000588644838606,2.500066130423526,8882030754191665e-20,1.0000817105078057
-0.37124860886035976,1.0000544771459428,2.5000613753606795,8264052641587162e-20,1.0000755645839565
-0.3693737320372068,1.0000503193794306,2.5000568519027975,767397776904324e-19,1.000069744041866
-0.36749884629410123,1.000046389078626,2.500052559877397,7112100107619027e-20,1.0000642455753337
-0.36562395207173554,1.0000426830239135,2.500048497787662,6578491563525267e-20,1.0000590643699645
-0.36374904981107137,1.0000391969975972,2.500044662937421,6073015067646501e-20,1.0000541942500991
-0.3618741399470731,1.000035925908189,2.500041051570012,55953411611344575e-21,1.0000496278330273
-0.3599992229106828,1.0000328639180343,2.500037659012557,51449934163737096e-21,1.0000453566884406
-0.35812429912636407,1.0000300045689037,2.50003447981759,47213786418292097e-21,1.0000413714995497
-0.3562493690097049,1.0000273409012104,2.5000315078959177,432380777852857e-19,1.0000376622220366
-0.3543744329659091,1.0000248655641502,2.500028736637413,3951510768323416e-20,1.0000342182375694
-0.35249949138868475,1.0000225709163517,2.5000261590196966,36036482457864145e-21,1.0000310285001892
-0.3506245446562774,1.0000204491182358,2.500023767706987,32793308307151215e-21,1.0000280816751306
-0.3487495931337455,1.0000184922178956,2.5000215551422604,29776100473925035e-21,1.000025366270169
-0.3468746371731799,1.0000166922322589,2.500019513635648,26974767719079728e-21,1.0000228707596954
-0.344999677112812,1.0000150412249695,2.5000176354514,24378671581378043e-21,1.0000205837018394
-0.34312471327728167,1.0000135313817844,2.500015912894699,2197667826529088e-20,1.0000184938488206
-0.3412497459777533,1.0000121550839325,2.500014338398662,19757244540565647e-21,1.000016590250973
-0.3393747755103516,1.00001090497966,2.50001290461142,1770837397725761e-20,1.0000148623552918
-0.3374998021581359,1.0000097740538445,2.5000116044825322,1581775813948814e-20,1.0000133000991835
-0.33562482619194645,1.0000087556953543,2.5000104313477682,1407287563389695e-20,1.0000118939998854
-0.3337498478707943,1.000007843761816,2.500009379011412,12461007680310984e-21,1.0000106352399494
-0.33187486744282374,1.0000070326416732,2.500008441825446,1096924054469178e-20,1.0000095157492412
-0.32999988514674294,1.0000063173136808,2.5000076147655617,958442779405949e-20,1.0000085282841131
-0.3281249012117173,1.0000056934044919,2.500006893504451,8293214031396522e-21,1.000007666504805
-0.3262499158592833,1.0000051572451316,2.5000062744831433,7081968773656526e-21,1.0000069250522332
-0.32437492930611084,1.0000047059271189,2.500005754981116,5936662680028833e-21,1.0000062996252381
-0.32249994176537405,1.0000043373589962,2.5000053331859218,48428105417557885e-22,1.0000057870593457
-0.32062495344860864,1.000004050323916,2.5000050082629253,3785412115743158e-21,1.0000053854079105
-0.31874996456792,1.0000038445388628,2.5000047804257597,2748878444682396e-21,1.0000050940263752
-0.31687497533808756,1.0000037207160828,2.5000046510080547,17169534963820965e-22,1.0000049136603049
-0.3149999859790862,1.000003680627087,2.5000046225368653,6726063201943016e-22,1.0000048465374207
-0.31312499671821725,1.0000037271692075,2.500004698807896,-40204309091565167e-23,1.0000048964631318
-0.3112500077926203,1.0000038644344464,2.500004884962347,-1525809012756942e-21,1.0000050689186832
-0.30937501945174417,1.0000040977806153,2.500005187565284,-27185413966756122e-22,1.0000053711617733
-0.3075000319607188,1.0000044339046452,2.500005614685086,-4001305975855281e-21,1.0000058123296833
-0.30562504560420156,1.000004880917584,2.500006175973038,-5396577290441786e-21,1.0000064035446572
-0.3037500606896792,1.000005448420213,2.500006882741362,-6928401345133448e-21,1.0000071580207197
-0.30187507755111015,1.0000061475774686,2.50000774803711,-862254346968843e-20,1.0000080911703466
-0.3000000965523871,1.0000069911893184,2.5000087867087415,-10506608697761077e-21,1.000009220708671
-0.29812511809126113,1.0000079937565298,2.500010015463283,-12610139061508752e-21,1.0000105667534855
-0.29625014260299803,1.00000917154048,2.5000114529129855,-14964656421306431e-21,1.000012151919604
-0.2943751705641005,1.0000105426158026,2.5000131196103106,-17603669426196117e-21,1.0000140014051915
-0.2925002024950782,1.0000121269143971,2.5000150380699813,-20562590001395725e-21,1.0000161430668353
-0.29062523896484493,1.0000139462587043,2.5000172327764147,-23878715014254785e-21,1.000018607478925
-0.28875028059233415,1.0000160243812053,2.500019730173796,-275910555660538e-19,1.0000214279715494
-0.28687532804946925,1.000018386926993,2.500022558635603,-31740221080981e-18,1.0000246406418458
-0.2850003820634641,1.0000210614365599,2.5000257484098767,-3636837563217384e-20,1.0000282843354216
-0.283125443434828,1.0000240773046647,2.500029331534876,-41519992868350734e-21,1.000032400593621
-0.28125051303170007,1.000027465709848,2.5000333417179568,-4724145083440471e-20,1.0000370335613742
-0.27937559178829474,1.0000312595079697,2.50003781416917,-5358044133361734e-20,1.0000422298491751
-0.2775006807081084,1.000035493082264,2.500042785380312,-6058590614736693e-20,1.0000480383412866
-0.27562578086446415,1.0000402021438415,2.500048292842521,-683076726981253e-19,1.0000545099428302
-0.2737508933973243,1.0000454234805294,2.5000543747011648,-767959044921097e-19,1.0000616972611616
-0.27187601952672286,1.0000511946540072,2.500061069350424,-8609938310411584e-20,1.0000696542173986
-0.2700011605495201,1.0000575536472993,2.5000684149738115,-9626489127533247e-20,1.0000784355846453
-0.26812631782352386,1.0000645384662468,2.5000764490397596,-0.00010733689059116068,1.0000880964501027
-0.2662514927723248,1.0000721866984559,2.5000852077618685,-0.00011935664690933685,1.0000986915978871
-0.2643766868785008,1.0000805350324036,2.5000947255315813,-0.00013236136454379153,1.0001102748104471
-0.2625019016729423,1.0000896187384085,2.500105034327053,-0.00014638350072593772,1.000122898090286
-0.2606271387479543,1.0000994711057507,2.5001161630902513,-0.00016145144518170266,1.0001366107993508
-0.2587523997633525,1.0001101228195337,2.500128137048639,-0.00017758946477424394,1.0001514587045606
-0.25687768640539516,1.0001216012491585,2.5001409769410032,-0.0001948155544511647,1.0001674829068476
-0.25500300038021256,1.0001339296099947,2.500154698092887,-0.00021314064985740867,1.0001847186199908
-0.2531283433971201,1.0001471259579195,2.5001693092841766,-0.00023256690375467214,1.0002031937627964
-0.2512537171393872,1.000161201989593,2.5001848113675647,-0.00025308562655529,1.000222927342236
-0.2493791232524965,1.0001761616441285,2.5002011956253285,-0.00027467369528644497,1.0002439276303081
-0.24750456334433765,1.00019199952941,2.500218441887926,-0.00029728888841752785,1.000266190168596
-0.24563003893105395,1.00020869923618,2.5002365164929548,-0.00032086970910852255,1.0002896956767384
-0.243755551424279,1.0002262316627435,2.500255370255401,-0.00034533381407776063,1.000314407994358
-0.24188110211977443,1.0002445535236382,2.5002749367105634,-0.0003705783238918962,1.0003402722132215
-0.24000669217982296,1.0002636061727028,2.5002951308582952,-0.00039648236997185424,1.0003672130683348
-0.23813232262320025,1.0002833147871553,2.500315848554461,-0.0004229116202655156,1.0003951335152022
-0.23625799436680145,1.000303587448573,2.5003369659734704,-0.0004497237335634747,1.0004239128660137
-0.23438370808242354,1.000324313279095,2.5003583380234233,-0.00047676368820906504,1.0004534034716615
-0.23250946406204628,1.0003453579093178,2.500379793275328,-0.0005038495085802309,1.0004834240724465
-0.23063526200203038,1.0003665542449844,2.5004011224109424,-0.0005307443150175859,1.0005137477740174
-0.22876110072203046,1.0003876864558843,2.5004220571043905,-0.0005571135500235325,1.000544082507113
-0.22688697786250978,1.0004084661757393,2.500442237645824,-0.0005824765226321043,1.0005740430995689
-0.22501289007283617,1.0004285007980829,2.5004611690215723,-0.0006062297043158526,1.0006031148151824
-0.2231388333011232,1.000447255948689,2.5004781684176525,-0.0006277058308721487,1.000630610416311
-0.22126480304482143,1.0004640167413665,2.500492310966538,-0.0006462382879060807,1.0006556252651229
-0.21939079562508151,1.0004778519945592,2.500502380575153,-0.0006614013355141517,1.0006769938802034
-0.2175168076034969,1.0004875817364616,2.500506827798556,-0.0006728397994278641,1.000693246423834
-0.21564283329413064,1.0004917416505656,2.500503728068081,-0.0006796896259852227,1.0007025553542035
-0.2137688676272898,1.000488531729411,2.500490725374298,-0.0006815015886687898,1.0007026548763807
-0.21189489827710883,1.0004757309961703,2.500464939252769,-0.000676199807303941,1.0006907095659245
-0.21002090228498532,1.0004505566788318,2.5004228083166313,-0.0006611625609611447,1.0006631045379513
-0.208146842464942,1.0004094583341872,2.5003598572724246,-0.0006312223652383135,1.0006151465785158
-0.2062726509189582,1.0003478653117819,2.5002704076677382,-0.0005782153493971229,1.0005407042920458
