position,density,energy,velocity,pressure
-0.598125,0.5416666666666646,2.5,0,0.5416666666666645
-0.59625,0.6234064651471283,2.5,0,0.623406465147128
-0.594375,0.7005171413057901,2.5,0,0.70051714130579
-0.5925,0.7703979942388643,2.5,0,0.7703979942388642
-0.590625,0.831109822293321,2.5,0,0.8311098222933208
-0.58875,0.8815152038095477,2.5,0,0.8815152038095474
-0.5868749999999999,0.9213243686959214,2.5,0,0.9213243686959212
-0.585,0.9510400627977266,2.5,0,0.9510400627977263
-0.583125,0.9718123221296954,2.5,0,0.9718123221296953
-0.5812499999999999,0.9852283760368477,2.5,0,0.9852283760368473
-0.579375,0.9930712455517816,2.5,0,0.9930712455517815
-0.5775,0.9970839245420665,2.5,0,0.9970839245420663
-0.5756249999999999,0.9987737888224227,2.5,0,0.9987737888224225
-0.57375,0.9992844025291556,2.5,0,0.9992844025291555
-0.571875,0.9993503690994902,2.5,0,0.9993503690994898
-0.57,0.9993371352729937,2.5,0,0.9993371352729935
-0.568125,0.9993538397180786,2.5,0,0.9993538397180783
-0.5662499999999999,0.9994078348268247,2.5,0,0.9994078348268244
-0.564375,0.9994947282966645,2.5,0,0.9994947282966643
-0.5624302544299886,0.9996106866590608,2.499571158207978,0.001693669107894074,0.9994460454455716
-0.5605947644115397,0.9997355787419109,2.4997081780347004,0.0005167436927952943,0.999626213131922
-0.5587378041950124,0.9998652419716639,2.499842197926398,-416141998859924e-19,0.9998107080569731
-0.5568702707814516,0.9999885617292363,2.4999678876874643,-0.00022759065248381346,0.9999859894303342
-0.5549969934111523,1.0000962679640253,2.500077255076893,-0.00023102161505196943,1.0001393361381443
-0.5531204329748229,1.0001818749254252,2.5001641138763824,-9798850025005221e-20,1.000261517036974
-0.5512420455775462,1.0002423106862623,2.500225612863102,0.00015334276968812207,1.000348025646025
-0.5493636034921815,1.0002780097571875,2.500262506082767,0.0004099207798151262,1.0003993168960343
-0.5474864302331514,1.0002925006906203,2.50027868608482,0.0005624574733415402,1.0004202552268293
-0.5456107014893697,1.0002915161387773,2.5002802095793433,0.0006161101176184836,1.0004188719003047
-0.5437361046147345,1.0002818138081409,2.500274029796991,0.0006037836634855336,1.000404705877939
-0.5418622913651573,1.0002699193808413,2.500266683174168,0.0005508569683567088,1.0003870238866168
-0.5399888633881124,1.0002609741821429,2.5002631239818465,0.0004824514372769624,1.0003731849786968
-0.5381155379322637,1.0002578567985605,2.5002658697737603,0.00041322046319793964,1.0003673889978597
-0.5362420570961838,1.0002607095679052,2.5002745730052927,0.00035799523571638137,1.0003699908361836
-0.534368192937315,1.000266944640621,2.5002860899130845,0.0003280047522264809,1.0003774876735467
-0.5324937624583428,1.0002717290937966,2.500295036726465,0.0003292864803896984,1.0003831815041286
-0.5306189413134265,1.000269836685707,2.5002957788232014,0.0003491323650417946,1.0003797655990554
-0.5287440853008298,1.0002600812968594,2.5002871768379324,0.00036457404350494693,1.0003655478455158
-0.5268693325014775,1.0002441915660083,2.5002713175236733,0.0003671277598454629,1.00034289228001
-0.5249947101450623,1.0002248664108562,2.5002513464864577,0.00035588413820038863,1.0003155139536921
-0.5231201888471262,1.0002046531069202,2.5002302025435865,0.00033392460217649957,1.000286923540873
-0.5212457169109225,1.0001853773780194,2.500209973042515,0.0003058593175459062,1.0002596385270117
-0.5193712432486164,1.0001679835649893,2.5001917190384844,0.0002761544196519391,1.0002349620930933
-0.5174967296540958,1.000152658998148,2.500175629252936,0.0002480527759755751,1.0002131537034074
-0.5156221555535488,1.0001391006405844,2.500161336942974,0.00022326703777045414,1.0001937959910105
-0.5137475174823369,1.0001267992389784,2.500148251746508,0.00020212203154197796,1.000176188274848
-0.5118728209425827,1.0001152653192862,2.500135819247353,0.00018421707239284451,1.0001596610007941
-0.5099980777569559,1.0001041667758979,2.500123675758464,0.00016868466440016076,1.000143767159164
-0.5081233019060211,1.0000933757845416,2.5001116978322084,0.00015451317134824877,1.0001283464165627
-0.5062485048217413,1.000082942763144,2.5000999684864538,0.00014090240207276559,1.0001134864722732
-0.5043736935370222,1.0000730242157276,2.500088691581037,0.00012741653399913632,1.000099419772572
-0.5024988699629513,1.000063796140999,2.5000780910626785,0.00011403805326697569,1.0000864004642864
-0.500624032942497,1.0000553853149026,2.5000683318525763,0.00010103461618602933,1.000074607304137
-0.4987491802713006,1.0000478414401133,2.5000594884412455,8869454932199835e-20,1.0000641046586127
-0.49687431044517766,1.0000411460749152,2.5000515560113525,7722869167765291e-20,1.0000548558170348
-0.4949994233414631,1.0000352373406198,2.5000444794430052,6676267498933038e-20,1.0000467590696087
-0.49312451997545886,1.0000300352932736,2.5000381826036278,57335158539763876e-21,1.00003968515098
-0.4912496020167605,1.0000254606924148,2.5000325895533604,48920437863326806e-21,1.0000335056073306
-0.48937467156622755,1.000021445072976,2.5000276354048414,41448926047155246e-21,1.0000281088625258
-0.48749973071948766,1.0000179332301236,2.500023268363575,34835264120584e-18,1.000023405246109
-0.4856247806079301,1.0000148807466926,2.500019446232531,29067255198516675e-21,1.000019324450552
-0.4837498224688331,1.000012249459823,2.500016130898458,24097034242104093e-21,1.000015809376233
-0.48187485743658065,1.0000100031615933,2.500013283517151,19858166204472957e-21,1.0000128096117162
-0.47999988649678765,1.0000081048399723,2.500010861868939,16273076919273097e-21,1.000010276522491
-0.4781249104479013,1.0000065158800118,2.5000088202095125,13265910153890801e-21,1.0000081608209035
-0.4762499300483699,1.0000051969063697,2.5000071110519664,107585750103184e-19,1.0000064124734387
-0.47437494600205043,1.0000041095098597,2.500005687848778,8687233350220875e-21,1.000004982105534
-0.47249995880945544,1.00000321805166,2.5000045075475246,6972503384251051e-21,1.0000038228935388
-0.4706249689489662,1.0000024909599194,2.5000035323188508,5543445380801752e-21,1.0000028921397706
-0.4687499769043644,1.0000019012784902,2.50000273020872,4347934824630117e-21,1.0000021521406925
-0.46687498309811365,1.0000014265186357,2.5000020748345264,33473076324248064e-22,1.0000015703276517
-0.4649999878932736,1.0000010480533694,2.5000015444770534,251528017435836e-20,1.000001118893804
-0.46312499160806336,1.0000007503346073,2.5000011209607425,18276504207096855e-22,1.0000007741813208
-0.4612499945197365,1.0000005201460607,2.5000007886170383,12573906903774825e-22,1.000000516041766
-0.4593749967032486,1.0000003460133617,2.5000005334978397,8088075430693415e-22,1.000000327290796
-0.45749999825729437,1.0000002178128047,2.5000003428942326,47502775306057253e-23,1.0000001932970608
-0.4556249993002023,1.000000126554272,2.5000002051263017,24009105550508383e-23,1.0000001016751967
-0.4537499999457987,1.0000000642845952,2.500000109524573,8565134118243835e-23,1.0000000420338393
-0.4518750003027162,1.0000000240693678,2.5000000465233008,-785750128730811e-23,1.0000000057777036
-0.4500000004591701,1.0000000000078866,2.500000007787482,-5687533412630707e-23,0.9999999859483804
-0.4481250004917233,0.9999999872408682,2.4999999863113884,-7672082217230145e-23,0.9999999770768395
-0.4462500004512278,0.9999999819252631,2.499999976451738,-783217651033863e-22,0.999999975026241
-0.44437500037477473,0.999999981166458,2.499999973882569,-6981252574417164e-23,0.9999999768168775
-0.44250000028773934,0.9999999829062767,2.499999975471619,-5690976139799981e-23,0.9999999804299535
-0.4406250002058111,0.9999999857724458,2.499999979087378,-4327986178299644e-23,0.9999999845947856
-0.4387500001365293,0.9999999889152398,2.4999999833761466,-30924536169187656e-24,0.999999988583362
-0.4368750000838127,0.9999999918571285,2.499999987549413,-2096735865113565e-23,0.9999999920348402
-0.43500000004661865,0.9999999943688453,2.499999991203881,-13526144765176445e-24,0.9999999948192705
-0.4331250000213953,0.9999999963760045,2.4999999941826307,-813351248610277e-23,0.9999999969404832
-0.4312500000049655,0.999999997893445,2.4999999964751862,-43225935162031475e-25,0.9999999984716831
-0.4293749999947747,0.9999999989813569,2.4999999981492413,-16940504176437621e-25,0.9999999995149117
-0.4274999999889635,0.9999999997174579,2.4999999993064344,4740387412484752e-26,1.0000000001768152
-0.4256249999860479,1.0000000001805518,2.5000000000555844,11535089929520942e-25,1.0000000005553866
-0.4237499999851969,1.0000000004417617,2.5000000004978817,1769103523836778e-24,1.0000000007337835
-0.4218749999857035,1.0000000005607468,2.5000000007199876,20346857015445207e-25,1.000000000778555
-0.41999999998701054,1.000000000584965,2.500000000792037,20578671046611437e-25,1.000000000740441
-0.418124999988742,1.000000000550618,2.5000000007684107,1920002668907275e-24,1.0000000006564906
-0.41624999999064377,1.000000000484249,2.5000000006896737,168464024572783e-23,1.0000000005525553
-0.41437499999252,1.0000000004044458,2.500000000584799,14046796925135713e-25,1.0000000004456637
-0.41249999999424325,1.0000000003234712,2.5000000004733844,11188981552959583e-25,1.000000000346143
-0.4106249999957381,1.000000000248754,2.5000000003677294,8531795613165848e-25,1.0000000002594491
-0.40874999999697825,1.000000000184181,2.5000000002746847,6212863130998106e-25,1.0000000001876774
-0.40687499999797383,1.00000000013118,2.500000000197226,4278204144406202e-25,1.000000000130757
-0.40499999999872505,1.0000000000895846,2.5000000001357434,2773298471287047e-25,1.0000000000873563
-0.403124999999261,1.000000000058287,2.5000000000890403,1670294434054461e-25,1.0000000000555158
-0.40124999999962196,1.000000000035714,2.500000000055069,9078200871074954e-26,1.0000000000330778
-0.3993749999998504,1.0000000000201508,2.5000000000314615,4110637644951075e-26,1.0000000000179528
-0.39749999999998314,1.0000000000099565,2.500000000015871,11181902131884447e-27,1.0000000000082767
-0.3956250000000511,1.0000000000036835,2.5000000000061897,-5052660664223978e-27,1.0000000000024858
-0.39375000000007787,1.0000000000001374,2.500000000000649,-12394563022668845e-27,0.9999999999993352
-0.3918750000000808,0.9999999999983856,2.499999999997856,-14361041033531772e-27,0.9999999999978817
-0.39000000000007146,0.9999999999977407,2.4999999999967724,-13419489430651404e-27,0.9999999999974463
-0.3881250000000574,0.999999999997722,2.499999999996668,-1118507596217005e-26,0.999999999997566
-0.386250000000043,0.9999999999980123,2.499999999997056,-8623251894699271e-27,0.9999999999979416
-0.38437500000003055,0.9999999999984153,2.499999999997634,-6271269057227773e-27,0.9999999999983936
-0.38250000000002055,0.9999999999988202,2.4999999999982285,-4344606537689518e-27,0.9999999999988236
-0.38062500000001315,0.9999999999991731,2.4999999999987517,-28500340460533537e-28,0.9999999999991869
-0.3787500000000078,0.9999999999994541,2.4999999999991718,-17477729045443814e-28,0.9999999999994704
-0.3768750000000041,0.9999999999996629,2.4999999999994857,-973306962057172e-27,0.9999999999996777
-0.3750000000000018,0.9999999999998093,2.4999999999997073,-4550138248328673e-28,0.9999999999998213
-0.3731250000000003,0.9999999999999055,2.4999999999998543,-1316111066393007e-28,0.9999999999999145
-0.37124999999999947,0.9999999999999654,2.4999999999999445,52112623301287815e-30,0.9999999999999714
-0.3693749999999991,0.9999999999999988,2.499999999999996,14170801328541157e-29,1.0000000000000027
-0.3674999999999991,1.000000000000015,2.5000000000000218,1710168880114123e-28,1.0000000000000175
-0.3656249999999991,1.000000000000021,2.5000000000000315,16571059776960083e-29,1.0000000000000224
-0.3637499999999993,1.0000000000000213,2.5000000000000315,14280934157026574e-29,1.000000000000022
-0.3618749999999994,1.000000000000018,2.500000000000028,11336318519100732e-29,1.0000000000000182
-0.35999999999999954,1.0000000000000144,2.500000000000022,8414710876692084e-29,1.0000000000000144
-0.35812499999999975,1.0000000000000109,2.500000000000016,5866874103284168e-29,1.0000000000000107
-0.3562499999999998,1.0000000000000073,2.5000000000000115,3817027916188251e-29,1.000000000000007
-0.3543749999999999,1.000000000000005,2.5000000000000075,23277380350994015e-30,1.0000000000000049
-0.3524999999999999,1.000000000000003,2.500000000000005,13070222587349854e-30,1.0000000000000029
-0.3506249999999999,1.0000000000000016,2.5000000000000027,6497736546675352e-30,1.0000000000000013
-0.34875,1.000000000000001,2.5000000000000013,25800789573343788e-31,1.0000000000000009
-0.346875,1.0000000000000007,2.500000000000001,11063219194069658e-31,1.0000000000000004
-0.345,1,2.5000000000000004,-3329296644505651e-32,0.9999999999999998
-0.343125,1.0000000000000002,2.5,-4501804648385222e-31,1
-0.34125,1,2.5,-5874804939678989e-31,0.9999999999999998
-0.339375,1,2.5,-5714250503862983e-31,0.9999999999999998
-0.33749999999999997,0.9999999999999997,2.5,-5293851807023102e-31,0.9999999999999994
-0.335625,1,2.5,-4493576177300927e-31,0.9999999999999998
-0.33375,1,2.5,-37027207145425687e-32,0.9999999999999998
-0.331875,0.9999999999999999,2.5,-4565506769103221e-31,0.9999999999999996
-0.32999999999999996,0.9999999999999997,2.5,-559324287630879e-30,0.9999999999999994
-0.328125,1,2.5,-7135739136956492e-31,0.9999999999999998
-0.32625,1,2.5,-5257342529960894e-31,0.9999999999999998
-0.32437499999999997,0.9999999999999999,2.5,-4771402869022381e-31,0.9999999999999996
-0.3225,1,2.5,-515678174746732e-30,0.9999999999999998
-0.320625,1.0000000000000002,2.5,-6592970444750159e-31,1
-0.31875,1,2.5,-13017717570074284e-32,0.9999999999999998
-0.31687499999999996,0.9999999999999999,2.5,-31051607135044574e-32,0.9999999999999996
-0.315,1.0000000000000002,2.5,-10277531956315067e-32,1
-0.313125,1.0000000000000002,2.5,-6526044354624362e-32,1
-0.31124999999999997,1,2.5,15971535081385043e-32,0.9999999999999998
-0.309375,1.0000000000000002,2.5,21236745149271002e-32,1
-0.3075,1.0000000000000004,2.5,-12334545196142723e-32,1.0000000000000002
-0.305625,1,2.5,-583153325582289e-31,0.9999999999999998
-0.30374999999999996,0.9999999999999999,2.5,14109360293349258e-32,0.9999999999999996
-0.301875,1.0000000000000002,2.5,-5438662887896807e-32,1
-0.3,1.0000000000000002,2.5,-42763424722330073e-33,1
-0.298125,1,2.5,-15851549200316883e-32,0.9999999999999998
-0.29625,1.0000000000000002,2.5,26061195108012763e-33,1
-0.294375,1.0000000000000004,2.5,-14745899566380211e-32,1.0000000000000002
-0.2925,1,2.5,-14058610687720893e-32,0.9999999999999998
-0.29062499999999997,0.9999999999999999,2.5,7899773033163447e-32,0.9999999999999996
-0.28875,1.0000000000000002,2.5,-1579702420100297e-31,1
-0.286875,1.0000000000000002,2.5,-2911807634888813e-31,1
-0.285,1,2.5,-3554363386013797e-31,0.9999999999999998
-0.283125,1.0000000000000002,2.5,2548406855010108e-32,1
-0.28125,1.0000000000000004,2.5,32432019269572633e-32,1.0000000000000002
-0.279375,1,2.5,4261319990735432e-31,0.9999999999999998
-0.27749999999999997,0.9999999999999999,2.5,7006006971951918e-31,0.9999999999999996
-0.275625,1,2.5,5740805173950703e-31,0.9999999999999998
-0.27375,1,2.5,7062138250390115e-31,0.9999999999999998
-0.271875,0.9999999999999999,2.5,41023598852990117e-32,0.9999999999999996
-0.27,1,2.5,31310675777926614e-32,0.9999999999999998
-0.268125,1,2.5,3166437133459878e-31,0.9999999999999998
-0.26625,0.9999999999999998,2.5,2529629560773511e-31,0.9999999999999996
-0.26437499999999997,0.9999999999999997,2.5,36861876493227746e-32,0.9999999999999994
-0.2625,0.9999999999999996,2.5,8185687965526716e-31,0.9999999999999994
-0.260625,0.9999999999999997,2.5,144836175647954e-29,0.9999999999999994
-0.25875,0.9999999999999996,2.4999999999999996,2479380314418051e-30,0.9999999999999994
-0.25687499999999996,0.9999999999999993,2.4999999999999996,4149074770306502e-30,0.9999999999999991
-0.25499999999999995,0.9999999999999992,2.499999999999999,6316991640570015e-30,0.9999999999999991
-0.25312499999999993,0.999999999999999,2.4999999999999987,9523051384880162e-30,0.9999999999999987
-0.2512499999999999,0.9999999999999991,2.4999999999999987,12954500711662818e-30,0.9999999999999989
-0.24937499999999993,0.9999999999999994,2.499999999999999,1591239371644323e-29,0.9999999999999992
-0.24749999999999991,1.0000000000000004,2.500000000000001,16558370962407894e-30,1.0000000000000002
-0.24562499999999993,1.000000000000003,2.5000000000000044,12218388001265613e-30,1.0000000000000027
-0.24375,1.000000000000008,2.5000000000000115,-3778233431165455e-30,1.0000000000000075
-0.24187500000000017,1.000000000000016,2.5000000000000244,-3880159789308887e-29,1.0000000000000153
-0.2400000000000005,1.0000000000000306,2.5000000000000453,-10633877779593753e-29,1.00000000000003
-0.23812500000000106,1.0000000000000528,2.5000000000000786,-2225896754990353e-28,1.0000000000000524
-0.23625000000000201,1.0000000000000855,2.5000000000001283,-4099860933052405e-28,1.0000000000000853
-0.23437500000000341,1.0000000000001323,2.500000000000198,-6938058117617639e-28,1.0000000000001326
-0.23250000000000542,1.000000000000194,2.50000000000029,-10973163437532814e-28,1.0000000000001956
-0.2306250000000081,1.0000000000002693,2.500000000000402,-16337240584003729e-28,1.000000000000273
-0.22875000000001153,1.0000000000003517,2.5000000000005236,-2291231639351421e-27,1.000000000000359
-0.22687500000001537,1.0000000000004243,2.5000000000006293,-30241633579209037e-28,1.000000000000438
-0.22500000000001918,1.0000000000004539,2.5000000000006684,-3719153662419471e-27,1.000000000000478
-0.22312500000002208,1.0000000000003832,2.500000000000553,-4161045772729499e-27,1.0000000000004237
-0.22125000000002215,1.0000000000001197,2.5000000000001448,-3987454998012423e-27,1.000000000000184
-0.21937500000001695,0.9999999999995244,2.499999999999232,-26335239966340443e-28,0.999999999999622
-0.21750000000000239,0.9999999999983997,2.4999999999975215,7287000111783107e-28,0.9999999999985412
-0.21562499999997298,0.999999999996482,2.499999999994616,72216537979667806e-28,0.999999999996675
-0.21374999999992128,0.9999999999934431,2.4999999999900284,18331383833138607e-27,0.9999999999936868
-0.2118749999998378,0.9999999999889144,2.4999999999832174,3589708553686161e-26,0.9999999999891889
-0.20999999999971167,0.9999999999825496,2.4999999999736837,6195189228172902e-26,0.9999999999827958
-0.20812499999953107,0.9999999999741532,2.499999999961173,9856421231913565e-26,0.9999999999742446
-0.20624999999928495,0.9999999999639047,2.499999999946014,14738696016140894e-26,0.9999999999636034
-0.20437499999896694,0.9999999999527159,2.49999999992967,20885188550667367e-26,0.9999999999516141
-0.202499999998583,0.9999999999427632,2.4999999999155427,28040791395366004e-26,0.9999999999402065
-0.2006249999981787,0.9999999999382272,2.4999999999100906,3510381714314737e-25,0.9999999999332272
-0.19874999999784743,0.99999999994626,2.499999999924274,39950788830099393e-26,0.9999999999374136
-0.19687499999775962,0.9999999999781599,2.4999999999753033,38855814246842553e-26,0.9999999999636079
-0.1949999999981953,1.0000000000506715,2.500000000088524,25861629008707865e-26,1.0000000000281617
-0.19312499999959196,1.0000000001872078,2.5000000002991496,-8149089631858473e-26,1.000000000154366
-0.19125000000254502,1.0000000004186653,2.500000000653277,-7534882976562118e-25,1.0000000003736327
-0.18937500000785032,1.0000000007833991,2.5000000012075367,-1916715783508626e-24,1.0000000007260517
-0.18750000001651893,1.000000001325918,2.5000000020266633,-3766354740299445e-24,1.000000001259953
-0.18562500002979532,1.0000000020937385,2.5000000031781155,-65307352429414195e-25,1.0000000020299549
-0.18375000004890937,1.000000003131722,2.500000004722733,-10415932870091853e-24,1.0000000030928355
-0.18187500007501478,1.0000000044731472,2.5000000067003256,-1558323527924837e-23,1.0000000045004043
-0.18000000010859013,1.0000000061267011,2.500000009109101,-2201861143211524e-23,1.0000000062883325
-0.1781250001493506,1.0000000080583877,2.5000000118776162,-29503740339570056e-24,1.0000000084595184
-0.17625000019711173,1.0000000101669493,2.5000000148275485,-3778017230696704e-23,1.0000000109598448
-0.17437500024987565,1.0000000122514787,2.5000000176257338,-4615957126307863e-23,1.0000000136441254
