position,density,energy,velocity,pressure
-0.6181603165680125,0.3250645305504262,3.005071203424486,-2.0231141351717516,0.36554010819600896
-0.6128420639069233,0.4108625004662107,2.9403033909146226,-1.633307946630183,0.45523209251305824
-0.6075685195896389,0.4899606828954967,2.9219468523494205,-1.2576473626897693,0.5378905480853751
-0.6025577253885489,0.5587923143984371,2.9310496842792615,-0.9276030545894289,0.610927290055885
-0.5979880260864591,0.618297368311418,2.9394047524654563,-0.6650838540495801,0.6754366548848678
-0.5939335777145744,0.6716344484984436,2.9260704176283885,-0.4725546670376518,0.7336672586805804
-0.5903733692509324,0.7212279780419445,2.8874219854953496,-0.33719405636588745,0.7864971897869368
-0.5872414001895014,0.7676101299421092,2.8327094948433795,-0.24203513913321176,0.833034552520928
-0.584466581208738,0.8100840924266671,2.773681180733647,-0.17380681407799237,0.8719500574378701
-0.5819857428361572,0.8478105605404128,2.718307024914834,-0.12446852969929367,0.9027942955554679
-0.5797895672562399,0.8800531488396889,2.67050932798468,-0.09439647113362673,0.9259250134938373
-0.5777738767073586,0.9073917612811696,2.6299227506530065,-0.07575502561450165,0.9433447102710781
-0.5758282880569074,0.9305778250780907,2.5958858777834157,-0.059979658624916554,0.957085602326556
-0.5739103485559952,0.9498887632311462,2.5683709738057123,-0.04512989560789736,0.9682016773119274
-0.5720063704213727,0.9654956302160648,2.54693164157289,-0.03177916319222476,0.9771466612086026
-0.5700991728437488,0.9776496588314344,2.530675179077489,-0.01960554189247237,0.9841061855177968
-0.5681822656641619,0.98664661350679,2.518867226953377,-0.008572403852834955,0.9892751961760042
-0.5662638968273004,0.9928656405676541,2.510772443335572,0.00046991822578398325,0.9929016801075194
-0.5643524746311824,0.9968094748835197,2.505641476856201,0.006946869733008208,0.9952950596084333
-0.5624525690183083,0.9990381320088664,2.502671241836253,0.01069080660773818,0.9967850800325602
-0.5605652247004099,1.0000889083924758,2.5011709359583643,0.011999302459511873,0.9976739942073922
-0.5586896007467286,1.0004251179755752,2.50055215069852,0.011305263075755825,0.9982093249012512
-0.55682334852328,1.0003992066030605,2.500378758986676,0.009148282541900069,0.998565566343288
-0.5549611498035311,1.0002485901909548,2.500368893491823,0.006536884789671381,0.9988493494163554
-0.5530992376204452,1.0001068485335984,2.500365897221046,0.004108723680937791,0.9991109246525685
-0.5512358092236176,1.0000266384273797,2.500311578859233,0.0020984620094094053,0.9993606861311123
-0.5493696629306061,1.0000093082309895,2.5002084808913594,0.0006425790715635292,0.9995884986633082
-0.5475005382700293,1.0000325029629984,2.5000851505993764,-0.0002735585166337739,0.9997798022639399
-0.5456286075472144,1.0000697078947458,2.4999724222366813,-0.0007112331303886331,0.9999247380579092
-0.5437546769108158,1.0001007383355027,2.4998912965005524,-0.0008281047828990948,1.0000210082538092
-0.5418794875227867,1.000115277635421,2.4998494865283796,-0.000753077952322075,1.0000732302766495
-0.540003623254118,1.0001119318851026,2.4998434249780703,-0.0005805671402951754,1.0000907411850406
-0.5381275851417332,1.0000949367025351,2.499863032499323,-0.0003925444506168313,1.0000847896154395
-0.5362516772348073,1.0000706273488973,2.499896512957631,-0.0002374978025841363,1.0000660431288442
-0.5343760141016687,1.0000449583113542,2.499933586701451,-0.00013105350991828076,1.0000430206400306
-0.532500587770902,1.0000222423387652,2.499967022683611,-6801485959310326e-20,1.0000214838110362
-0.530625348269592,1.0000048128389871,2.499992907696893,-3721390685341066e-20,1.0000045412771632
-0.5287502324785761,0.9999932729655757,2.500010124545292,-26252398924587684e-21,0.9999931854596852
-0.5268751846325191,0.9999870254024934,2.5000194678204357,-2484969659428153e-20,0.9999870005445191
-0.5250001651235087,0.9999848467406423,2.500022729274329,-26120198563829862e-21,0.9999848406858017
-0.5231251507867912,0.9999853606333773,2.5000219575608953,-26368144118061654e-21,0.9999853594164493
-0.5212501323435609,0.9999873477359605,2.500018977072132,-24470876151627518e-21,0.9999873475450556
-0.519375108883385,0.9999898933195016,2.5000151589650272,-20764982725411812e-21,0.9999898932980427
-0.5175000832268005,0.9999924102589328,2.5000113838297766,-16154065486361808e-21,0.99999241025744
-0.5156250588250657,0.9999945878960113,2.5000081176320696,-11536881993303576e-21,0.9999945878959646
-0.5137500381483544,0.9999963123846308,2.5000055311091676,-7528791216966201e-21,0.9999963123846306
-0.511875022251699,0.9999975894144084,2.5000036157106136,-4408074619562452e-21,0.9999975894144082
-0.5100000110813964,0.9999984841513334,2.5000022736930965,-21996036464849136e-22,0.9999984841513333
-0.5081250039382903,0.9999990814044994,2.5000013778595553,-781506694828841e-21,0.9999990814044993
-0.5062499998665385,0.9999994629015867,2.5000008056352594,28795619393841805e-24,0.9999994629015866
-0.5043749979167838,0.99999969676165,2.5000004548537578,41730293308096286e-23,0.99999969676165
-0.5024999972899215,0.9999998346156261,2.5000002480757404,5422030637459074e-22,0.999999834615626
-0.5006249973893886,0.9999999128631487,2.500000130705255,5221696854118435e-22,0.9999999128631485
-0.49874999781485063,0.9999999556657396,2.5000000665014936,4370403358526596e-22,0.9999999556657394
-0.49687499832618226,0.9999999782366537,2.500000032645093,3347655077447149e-22,0.9999999782366534
-0.49499999879864454,0.9999999897072076,2.5000000154392246,2402713894422707e-22,0.9999999897072074
-0.49312499918169567,0.9999999953197704,2.500000007020359,16366089412701297e-23,0.99999999531977
-0.49124999946696934,0.9999999979594104,2.5000000030608893,10660611884220056e-23,0.9999999979594102
-0.48937499966635495,0.9999999991497434,2.500000001275387,6672900693723624e-23,0.9999999991497432
-0.4874999997986792,0.9999999996627711,2.5000000005058443,40264160887792974e-24,0.9999999996627709
-0.4856249998826517,0.9999999998732744,2.5000000001900884,23469663549659564e-24,0.9999999998732741
-0.48374999993383194,0.999999999955123,2.5000000000673155,13233618836441743e-24,0.9999999999551228
-0.4818749999638776,0.9999999999851178,2.5000000000223235,72244805684998795e-25,0.9999999999851177
-0.47999999998089904,0.9999999999954124,2.5000000000068816,3820184353912636e-24,0.9999999999954121
-0.47812499999021596,0.9999999999986969,2.5000000000019544,1956804711881513e-24,0.9999999999986966
-0.4762499999951465,0.9999999999996624,2.5000000000005063,9706860286662602e-25,0.999999999999662
-0.4743749999976699,0.9999999999999215,2.500000000000118,4660201882343329e-25,0.9999999999999213
-0.4724999999989184,0.999999999999984,2.5000000000000244,21631337586732257e-26,0.9999999999999838
-0.4706249999995153,0.9999999999999971,2.5000000000000044,9693906330282409e-26,0.9999999999999969
-0.46874999999979067,0.9999999999999998,2.5000000000000004,418651780811482e-25,0.9999999999999996
-0.46687499999991305,1,2.5,17384276881947955e-27,0.9999999999999998
-0.4649999999999654,1,2.5,69220913084197705e-28,0.9999999999999998
-0.46312499999998685,1.0000000000000002,2.5,26345798429596527e-28,1
-0.4612499999999952,1.0000000000000002,2.5,954841539843648e-27,1
-0.4593749999999983,1,2.5,32801942107940984e-29,0.9999999999999998
-0.45749999999999946,1,2.5,10591605479524734e-29,0.9999999999999998
-0.4556249999999998,0.9999999999999999,2.5,3099070609992333e-29,0.9999999999999996
-0.45374999999999993,1,2.5,7248472584237573e-30,0.9999999999999998
-0.45187499999999997,1,2.5,8496322237033643e-32,0.9999999999999998
-0.44999999999999996,1,2.5,-14666052382323472e-31,0.9999999999999998
-0.448125,1.0000000000000002,2.5,-19800993341534435e-31,1
-0.44625,1.0000000000000004,2.5000000000000004,-12616085343284584e-31,1.0000000000000002
-0.44437499999999996,1.0000000000000002,2.5000000000000004,-5172821079733041e-31,1
-0.4425,1.0000000000000007,2.5000000000000004,6365110298180803e-31,1.0000000000000004
-0.440625,1.0000000000000004,2.5000000000000004,5637289820060405e-31,1.0000000000000002
-0.43875,1,2.5,9162046616346523e-31,0.9999999999999998
-0.436875,1.0000000000000004,2.5,11233482227877081e-31,1.0000000000000002
-0.435,1.0000000000000002,2.5,6889613963557068e-31,1
-0.433125,1,2.5,22064899912046836e-32,0.9999999999999998
-0.43125,1,2.5,248386131839099e-30,0.9999999999999998
-0.42937499999999995,0.9999999999999999,2.5,-6120842567324148e-31,0.9999999999999996
-0.4275,0.9999999999999999,2.5,-7135062438033244e-31,0.9999999999999996
-0.425625,1,2.5,-9939300976138312e-31,0.9999999999999998
-0.42374999999999996,0.9999999999999998,2.5,-5427362994043999e-31,0.9999999999999996
-0.421875,1,2.5,-8928106811887275e-31,0.9999999999999998
-0.42,0.9999999999999999,2.5,-6558922825897282e-31,0.9999999999999996
-0.41812499999999997,0.9999999999999997,2.5,-4774178972696407e-31,0.9999999999999994
-0.41625,1,2.5,-5104406399219047e-31,0.9999999999999998
-0.414375,1,2.5,-39642917635199717e-32,0.9999999999999998
-0.4125,0.9999999999999998,2.5,-7118582875527029e-31,0.9999999999999996
-0.410625,1,2.5,-7639408955271624e-31,0.9999999999999998
-0.40874999999999995,0.9999999999999997,2.5,-21717398584419217e-31,0.9999999999999994
-0.406875,1,2.5,-16219421121659792e-31,0.9999999999999998
-0.40499999999999997,1,2.5,-13789623408238108e-31,0.9999999999999998
-0.40312499999999996,1,2.5,-17857603295380683e-31,0.9999999999999998
-0.40125,1.0000000000000002,2.5000000000000004,-1543275467289937e-30,1
-0.399375,1.0000000000000004,2.5000000000000004,-879797862108105e-30,1.0000000000000002
-0.39749999999999996,1.0000000000000002,2.5000000000000004,-2569483715771757e-31,1
-0.395625,1.0000000000000007,2.5,5709935774595809e-31,1.0000000000000004
-0.39375,1.0000000000000004,2.5,6500361366778359e-31,1.0000000000000002
-0.391875,1,2.5,8045511639526521e-31,0.9999999999999998
-0.39,1.0000000000000004,2.5,9989701789436428e-31,1.0000000000000002
-0.388125,1.0000000000000002,2.5,5287782755918729e-31,1
-0.38625,1,2.5,6637479180871493e-32,0.9999999999999998
-0.384375,1,2.5,-31501874331528466e-33,0.9999999999999998
-0.38249999999999995,0.9999999999999999,2.5,-1099539763354937e-30,0.9999999999999996
-0.380625,0.9999999999999999,2.5,-13264998868785728e-31,0.9999999999999996
-0.37875,1,2.5,-1400309933673423e-30,0.9999999999999998
-0.37687499999999996,0.9999999999999999,2.5,-15476472737492316e-31,0.9999999999999996
-0.375,1,2.5,-17941212607744585e-31,0.9999999999999998
-0.373125,1,2.5,-9529813334344199e-31,0.9999999999999998
-0.37124999999999997,1,2.5,-5102610998183072e-31,0.9999999999999998
-0.369375,1.0000000000000002,2.5,-22036641131374637e-32,1
-0.3675,1.0000000000000002,2.5,6422390219054377e-32,1
-0.365625,1,2.5,9781819271276702e-32,0.9999999999999998
-0.36375,1.0000000000000002,2.5,1219359924419648e-31,1
-0.36187499999999995,0.9999999999999999,2.5,-3136344398016569e-31,0.9999999999999996
-0.36,1,2.5,-11443379331536308e-32,0.9999999999999998
-0.358125,1.0000000000000002,2.5,3702874991728538e-32,1
-0.35624999999999996,1,2.5,-6731927344680127e-31,0.9999999999999998
-0.354375,1.0000000000000002,2.5,-4224314146669162e-31,1
-0.3525,1,2.5,-959821151715659e-30,0.9999999999999998
-0.35062499999999996,0.9999999999999999,2.5,-34315149135856845e-32,0.9999999999999996
-0.34875,1,2.5,-36382941943522543e-32,0.9999999999999998
-0.346875,1,2.5,2956098733048955e-31,0.9999999999999998
-0.345,0.9999999999999999,2.5,2839717144073266e-31,0.9999999999999996
-0.343125,1,2.5,1434262320290453e-31,0.9999999999999998
-0.34125,1,2.5,20236812444851096e-32,0.9999999999999998
-0.339375,1,2.5,-9518376473102259e-32,0.9999999999999998
-0.33749999999999997,0.9999999999999997,2.5,-22748873832729116e-32,0.9999999999999994
-0.335625,1,2.5,-2937499364147868e-31,0.9999999999999998
-0.33375,1,2.5,-36533776563470377e-32,0.9999999999999998
-0.331875,0.9999999999999999,2.5,-893696555182098e-30,0.9999999999999996
-0.32999999999999996,0.9999999999999997,2.5,-12972565942516159e-31,0.9999999999999994
-0.328125,1,2.5,-1617066545740028e-30,0.9999999999999998
-0.32625,1,2.5,-8662121301148496e-31,0.9999999999999998
-0.32437499999999997,0.9999999999999999,2.5,-5650716952831446e-31,0.9999999999999996
-0.3225,1,2.5,-4795460766958222e-31,0.9999999999999998
-0.320625,1.0000000000000002,2.5,-5769963254124271e-31,1
-0.31875,1,2.5,-8429314042132012e-32,0.9999999999999998
-0.31687499999999996,0.9999999999999999,2.5,-17772539135127975e-32,0.9999999999999996
-0.315,1.0000000000000002,2.5,-6148943052220741e-32,1
-0.313125,1.0000000000000002,2.5,-44178301601118736e-33,1
-0.31124999999999997,1,2.5,10457012681326479e-32,0.9999999999999998
-0.309375,1.0000000000000002,2.5,1484336426021428e-31,1
-0.3075,1.0000000000000004,2.5,-22697370059078636e-32,1.0000000000000002
-0.305625,1,2.5,-1517563992838208e-31,0.9999999999999998
-0.30374999999999996,0.9999999999999999,2.5,8702277824138326e-32,0.9999999999999996
-0.301875,1.0000000000000002,2.5,-15560904862570308e-32,1
-0.3,1.0000000000000002,2.5,-13148146991929716e-32,1
-0.298125,1,2.5,-37164697403926424e-32,0.9999999999999998
-0.29625,1.0000000000000002,2.5,-207288339328129e-31,1
-0.294375,1.0000000000000004,2.5,-2715185021500396e-31,1.0000000000000002
-0.2925,1,2.5,-21651196913373545e-32,0.9999999999999998
-0.29062499999999997,0.9999999999999999,2.5,42290281200797646e-33,0.9999999999999996
-0.28875,1.0000000000000002,2.5,-21989046044571583e-32,1
-0.286875,1.0000000000000002,2.5,-5202719491000493e-31,1
-0.285,1,2.5,-5832406958357919e-31,0.9999999999999998
-0.283125,1.0000000000000002,2.5,-2405883308738279e-32,1
-0.28125,1.0000000000000004,2.5,1298061156156583e-31,1.0000000000000002
-0.279375,1,2.5,18537562850975748e-32,0.9999999999999998
-0.27749999999999997,0.9999999999999999,2.5,40455855835058116e-32,0.9999999999999996
-0.275625,1,2.5,32528858746503055e-32,0.9999999999999998
-0.27375,1,2.5,4481744063190268e-31,0.9999999999999998
-0.271875,0.9999999999999999,2.5,15622534471174515e-32,0.9999999999999996
-0.27,1,2.5,-9117343941864923e-33,0.9999999999999998
-0.268125,1,2.5,-8892144102905033e-32,0.9999999999999998
-0.26625,0.9999999999999998,2.5,-4613117063251622e-31,0.9999999999999996
-0.26437499999999997,0.9999999999999997,2.5,-7675392103936631e-31,0.9999999999999994
-0.2625,0.9999999999999999,2.5,-3537529943794571e-31,0.9999999999999996
-0.260625,1,2.5,-8127126740735624e-31,0.9999999999999998
-0.25875,0.9999999999999999,2.5,-8353387105291482e-31,0.9999999999999996
-0.25687499999999996,0.9999999999999997,2.5,-15455922441680518e-31,0.9999999999999994
-0.255,1,2.5,-14980746489528055e-31,0.9999999999999998
-0.253125,1,2.5,-7798620870970793e-31,0.9999999999999998
-0.25125,0.9999999999999999,2.5,-508050410075249e-30,0.9999999999999996
-0.249375,1,2.5,-4466426090146946e-31,0.9999999999999998
-0.2475,1.0000000000000002,2.5,-55750995084641745e-32,1
-0.24562499999999998,1,2.5,-1179614187076794e-31,0.9999999999999998
-0.24374999999999997,0.9999999999999999,2.5,-2701871410801058e-31,0.9999999999999996
-0.241875,1.0000000000000002,2.5,-11622887225142367e-32,1
-0.24,1.0000000000000002,2.5,-1151938868009977e-31,1
-0.23812499999999998,1,2.5,3605914293955752e-32,0.9999999999999998
-0.23625000000000002,1.0000000000000002,2.5,1866088327346907e-31,1
-0.234375,1.0000000000000004,2.5,12688400331731834e-32,1.0000000000000002
-0.23249999999999998,1,2.5,18541753036178294e-32,0.9999999999999998
-0.23062499999999997,0.9999999999999999,2.5,4046338624629245e-31,0.9999999999999996
-0.22875,1,2.5,32540480739863857e-32,0.9999999999999998
-0.226875,1,2.5,4483570426570242e-31,0.9999999999999998
-0.22499999999999998,0.9999999999999999,2.5,15654482022812703e-32,0.9999999999999996
-0.22312500000000002,1,2.5,-951487100713511e-32,0.9999999999999998
-0.22125,1,2.5,-8986989098891496e-32,0.9999999999999998
-0.219375,0.9999999999999998,2.5,-4678402193097782e-31,0.9999999999999996
-0.21749999999999997,0.9999999999999997,2.5,-7752557151948982e-31,0.9999999999999994
-0.215625,0.9999999999999999,2.5,-35188219585431576e-32,0.9999999999999996
-0.21375,1,2.5,-8138544353509144e-31,0.9999999999999998
-0.21187499999999998,0.9999999999999999,2.5,-8348620357791192e-31,0.9999999999999996
-0.20999999999999996,0.9999999999999997,2.5,-1545722970875459e-30,0.9999999999999994
-0.208125,1,2.5,-14966910992577855e-31,0.9999999999999998
-0.20625,1,2.5,-7762417652526809e-31,0.9999999999999998
-0.20437499999999997,0.9999999999999999,2.5,-5009600006814863e-31,0.9999999999999996
-0.2025,1,2.5,-4337104467517197e-31,0.9999999999999998
-0.200625,1.0000000000000002,2.5,-5405199718588635e-31,1
-0.19874999999999998,1,2.5,-7788439592783605e-32,0.9999999999999998
-0.19687499999999997,0.9999999999999999,2.5,-17140915043101207e-32,0.9999999999999996
-0.195,1.0000000000000002,2.5,-6003231194572953e-32,1
-0.193125,1.0000000000000002,2.5,-4366665295009554e-32,1
-0.19124999999999998,1,2.5,10457885157405669e-32,0.9999999999999998
-0.18937500000000002,1.0000000000000002,2.5,1484383147113902e-31,1
-0.1875,1.0000000000000004,2.5,-22784004376248817e-32,1.0000000000000002
-0.18562499999999998,1,2.5,-15223261225785267e-32,0.9999999999999998
-0.18374999999999997,0.9999999999999999,2.5,8702227230832422e-32,0.9999999999999996
-0.181875,1.0000000000000002,2.5,-15589337642656441e-32,1
-0.18,1.0000000000000002,2.5,-13168203301705876e-32,1
-0.17812499999999998,1,2.5,-37186547876707153e-32,0.9999999999999998
-0.17625000000000002,1.0000000000000002,2.5,-20728809643929645e-33,1
-0.174375,1.0000000000000004,2.5,-27158959817622376e-32,1.0000000000000002
-0.1725,1,2.5,-21654168942145686e-32,0.9999999999999998
-0.17062499999999997,0.9999999999999999,2.5,42296484511423025e-33,0.9999999999999996
-0.16875,1.0000000000000002,2.5,-21987861003108044e-32,1
-0.166875,1.0000000000000002,2.5,-520258688655278e-30,1
-0.16499999999999998,1,2.5,-5832074988360706e-31,0.9999999999999998
-0.16312500000000002,1.0000000000000002,2.5,-23901017615325954e-33,1
-0.16125,1.0000000000000004,2.5,13014708192424875e-32,1.0000000000000002
-0.159375,1,2.5,1859818323203556e-31,0.9999999999999998
-0.15749999999999997,0.9999999999999999,2.5,4054722154926307e-31,0.9999999999999996
-0.155625,1,2.5,32613601940456176e-32,0.9999999999999998
-0.15375,1,2.5,4460667014278068e-31,0.9999999999999998
-0.15187499999999998,0.9999999999999999,2.5,1367298228324317e-31,0.9999999999999996
-0.15000000000000002,1,2.5,-11479519365995746e-32,0.9999999999999998
-0.148125,1,2.5,-5648687005668645e-31,0.9999999999999998
-0.14625,0.9999999999999998,2.5,-24226556733211042e-31,0.9999999999999996
-0.144375,0.9999999999999997,2.5,-8126802778177694e-30,0.9999999999999994
-0.14250000000000015,0.9999999999999999,2.5,-25914412090039026e-30,0.9999999999999996
-0.14062500000000042,1,2.5,-8371122595055378e-29,0.9999999999999998
-0.13875000000000126,0.9999999999999999,2.5,-25353892144325734e-29,0.9999999999999996
-0.1368750000000036,0.9999999999999997,2.5,-7292757074287402e-28,0.9999999999999994
-0.13500000000000997,1,2.5,-19904513293167452e-28,0.9999999999999998
-0.13312500000002592,1,2.5,-5182235000882144e-27,0.9999999999999998
-0.13125000000006454,0.9999999999999999,2.5,-12910239575981929e-27,0.9999999999999996
-0.1293750000001543,0.9999999999999996,2.5000000000000004,-3085916387939545e-26,0.9999999999999994
-0.12750000000035475,0.9999999999999976,2.500000000000004,-7094977770315727e-26,0.9999999999999973
-0.12562500000078616,0.9999999999999861,2.500000000000021,-15723657342877408e-26,0.9999999999999859
-0.12375000000168221,0.9999999999999346,2.500000000000098,-33644651102426557e-26,0.9999999999999344
-0.12187500000347964,0.9999999999997254,2.500000000000412,-6959254947659657e-25,0.9999999999997251
-0.12000000000696293,0.9999999999989581,2.500000000001563,-13925862593969923e-25,0.9999999999989577
-0.11812500001348328,0.9999999999963892,2.500000000005416,-269665885945715e-23,0.999999999996389
-0.11625000002526244,0.9999999999884529,2.500000000017321,-50524843597646265e-25,0.9999999999884528
-0.11437500004576574,0.9999999999656229,2.500000000051566,-9153148699694986e-24,0.9999999999656226
-0.11250000008006529,0.9999999999040328,2.5000000001439506,-16013060452445198e-24,0.9999999999040324
