position,density,energy,velocity,pressure
-0.598125,0.5416666666666646,2.5,0,0.5416666666666645
-0.59625,0.6234064651471283,2.5,0,0.623406465147128
-0.594375,0.7005171413057901,2.5,0,0.70051714130579
-0.5925,0.7703979942388643,2.5,0,0.7703979942388642
-0.590625,0.8311080373928015,2.5,0,0.8311080373928013
-0.58875,0.8814994325990889,2.5,0,0.8814994325990888
-0.5868749999999999,0.9212707363073801,2.5,0,0.9212707363073799
-0.585,0.9509194811223404,2.5,0,0.9509194811223401
-0.583125,0.9715997627939793,2.5,0,0.971599762793979
-0.5812499999999999,0.9849115102390771,2.5,0,0.9849115102390769
-0.579375,0.992655543731253,2.5,0,0.9926555437312528
-0.5775,0.9965923755890795,2.5,0,0.9965923755890793
-0.5756249999999999,0.9982417522188277,2.5,0,0.9982417522188274
-0.57375,0.9987518101943349,2.5,0,0.9987518101943347
-0.571875,0.9988535242595641,2.5,0,0.9988535242595638
-0.57,0.9989019702000751,2.5,0,0.998901970200075
-0.568125,0.9989919785671115,2.5,0,0.9989919785671114
-0.5662499999999999,0.9991161247127233,2.5,0,0.999116124712723
-0.564375,0.9992581602521934,2.5,0,0.9992581602521932
-0.5622989869833688,0.9994187868596769,2.499382009028176,0.0010096904557850273,0.9991722064823438
-0.5605769359231828,0.9995459485775288,2.499539994237478,7635774960942607e-20,0.9993624320965354
-0.5587625072702559,0.9996667542792166,2.4996640795273817,-0.00024316298274438001,0.9995329011517604
-0.5569085972413569,0.999771882167215,2.4997687855726283,-0.0003598453289339186,0.9996799362952563
-0.5550324867959187,0.9998558387833164,2.499852819463307,-0.0003297934247112479,0.9997974855084051
-0.5531384174401938,0.9999154635610992,2.4999130394871276,-0.00015697532955755134,0.9998811427308067
-0.5512296538454784,0.9999499753268094,2.4999479839514325,0.0001165210561000064,0.9999295801072717
-0.5493281219363514,0.9999617487251055,2.4999597810602507,0.0002967764228069765,0.9999460536978786
-0.5474456623276922,0.9999570577346085,2.4999550647935704,0.0003341404968356347,0.9999394893992561
-0.54557367810221,0.9999443944604212,2.499942488586991,0.00029125523225393275,0.9999218165752376
-0.543707795550004,0.9999327683758414,2.4999310892674944,0.00019575631286805845,0.9999056200058019
-0.541845328730541,0.9999299213570219,2.4999285731628764,7033691309984996e-20,0.999901686281303
-0.5399836395469361,0.9999403236955554,2.499939355901742,-6488125151029663e-20,0.9999162364098699
-0.5381212650674427,0.9999636663564991,2.4999631042932564,-0.00018856182613678188,0.9999488465808442
-0.5362549273384787,0.9999945187318979,2.4999944012726387,-0.0002625696805750655,0.9999919707623132
-0.5343798047914848,1.0000231856606843,2.5000235396930166,-0.00022187266067066295,1.000032105628807
-0.5324880825662184,1.000037389416013,2.5000379828187476,29136376259705908e-21,1.0000520479142214
-0.5305870316030759,1.000027473478649,2.500027458585219,0.00031923469335704767,1.0000381022784153
-0.5287018228738339,1.0000006110978448,2.499999541722217,0.00038766122299290114,1.000000399487409
-0.5268301977045295,0.9999720091687951,2.4999700300220153,0.000303693679944522,0.9999603454905089
-0.5249644753511242,0.9999545871296828,2.4999519199815734,0.000162122831647013,0.9999359686474733
-0.523100628861773,0.9999548570753981,2.499951685253156,-6554429188480542e-23,0.9999363245141928
-0.5212354219774169,0.9999717265620434,2.4999682124079365,-0.0001303914458966102,0.9999598814143495
-0.519366684202753,0.9999980065138733,2.4999943108051967,-0.00020157067522897883,0.9999966218718741
-0.5174928319853408,1.0000240928933377,2.500020324920406,-0.00018210124734603845,1.0000331449342472
-0.5156131869125724,1.0000418713900419,2.5000380131477367,-5300937375772149e-20,1.0000580952740352
-0.5137287289103409,1.000047190274683,2.500043107902089,0.00013658378124777602,1.000065638340489
-0.5118442895270471,1.0000407210574496,2.5000363060927087,0.00025061013022767106,1.0000567016243276
-0.5099654083176992,1.000027285488175,2.5000226539833883,0.0002686963014776544,1.000038064397734
-0.5080917743350979,1.0000138071842481,2.500009289995131,0.0002225683740187603,1.0000194366157713
-0.5062208192769609,1.0000068395460415,2.500002852224829,0.00014342912154430155,1.000009972994385
-0.5043509829506606,1.0000103148961523,2.500007247398104,5330916536979953e-20,1.0000151481340838
-0.5024808865809617,1.000024009821944,2.5000221251680146,-2694182122695166e-20,1.0000346227549435
-0.5006092829882866,1.0000435043201994,2.5000428630527756,-7058658568184762e-20,1.0000621888310028
-0.4987351498480603,1.000062183650334,2.500062616523884,-54958707680631284e-21,1.000088561546223
-0.4968582588984723,1.0000743448244183,2.5000754891916737,20612003911425286e-21,1.0001057185451976
-0.49497897226011484,1.0000772724930673,2.500078681819941,0.00012232742257226967,1.000109816069093
-0.4930992063655071,1.0000716792365119,2.500072966178513,0.00019056650157369404,1.0001018216420416
-0.4912220685255512,1.0000609143684989,2.500061879948023,0.00020300356206127542,1.0000864233725055
-0.48934794683853655,1.000049409701925,2.5000500574282802,0.00017620303165556998,1.0000698402812125
-0.4874750735625717,1.0000410421585195,2.500041503637027,0.00013254587485700688,1.0000575208738536
-0.4856025888396136,1.0000379491108735,2.5000383948135236,861666289388014e-19,1.0000524949645313
-0.48372990228621887,1.0000400347097125,2.5000405767701794,46092864657320303e-21,1.000054680902677
-0.4818565501865681,1.0000453351563907,2.500045952444876,21596963875684103e-21,1.000061390445586
-0.4799821587314575,1.0000511043160392,2.5000516129266814,18572080844038506e-21,1.0000688383473861
-0.4781065920258355,1.0000550836473452,2.500055154479496,38449085561797634e-21,1.000073910643816
-0.47622974986242617,1.0000563167216348,2.5000555311013364,8232931345797048e-20,1.0000753002514873
-0.47435226142726045,1.0000553024227261,2.500053226439445,0.00012775302174025232,1.00007372004719
-0.4724759896965249,1.0000536256610808,2.5000498864743745,0.00013494459006855013,1.0000713874885998
-0.4706013550726736,1.0000532665254247,2.500047591982709,0.00011340047774479809,1.0000710565310558
-0.4687274350450766,1.0000558550039136,2.5000480775261034,8190946475882159e-20,1.0000749766058645
-0.4668537171400463,1.0000621162232337,2.5000521663501214,51730195269233144e-21,1.0000841253673463
-0.4649799104491583,1.0000716683760227,2.500059561364135,26437881613653725e-21,1.0000979320938967
-0.4631057794816176,1.000083238591454,2.5000690663810654,13080513544946704e-21,1.00011458370693
-0.46123117389238044,1.0000952269016217,2.5000791622577285,16787853450323823e-21,1.0001318165808002
-0.45935601040851587,1.0001063662823755,2.5000886753148817,43676977869995264e-21,1.0001478420834509
-0.45748030215232083,1.0001161357647075,2.500097187979855,9913122952422864e-20,1.0001619256800343
-0.4556043962201332,1.0001247992413271,2.5001050642972382,0.00016839414844115324,1.0001744403141586
-0.4537288798029926,1.0001331754141418,2.500113197097955,0.00021354568755135032,1.0001865409965127
-0.451853977316985,1.0001422663627824,2.5001226155276797,0.00022094441261053175,1.0001996406580838
-0.449979484891769,1.0001528661129073,2.500134082395603,0.00021083058166946386,1.0002148584817756
-0.44810513918873973,1.0001652612995307,2.50014779401382,0.00019739440558306373,1.000232597444956
-0.44623080432032125,1.0001791058326,2.500163266767052,0.0001875905252247121,1.000252366629119
-0.44435638815516987,1.0001935079940736,2.5001794482495727,0.00018583124873714895,1.0002729027216017
-0.44248184323984346,1.0002073140424534,2.500195033952707,0.00019463257118802714,1.0002925691135958
-0.44060716358829255,1.0002194815315792,2.500208872298032,0.00021518623297545612,1.000309883529499
-0.43873238693111477,1.0002293547505137,2.5002202559318656,0.0002444300651806053,1.000323908480481
-0.4368576067276799,1.000236751276608,2.5002290057846066,0.00027286972704911375,1.000334375694734
-0.4349828917450231,1.000241899984058,2.500235394037402,0.00029434343647945016,1.0003416011039354
-0.4331082715638209,1.0002452905231225,2.500239971731581,0.0003056427190352173,1.0003462748343837
-0.4312337272850288,1.0002474902701226,2.500243362733663,0.0003092474974840672,1.0003492045647067
-0.4293592273048574,1.0002489803932628,2.500246081339393,0.0003089053064784978,1.0003510844435166
-0.4274847448771626,1.0002500510739214,2.5002484180259343,0.0003071378588237875,1.0003523458180572
-0.42561026059615775,1.000250777675738,2.5002504178071017,0.0003055861890387877,1.0003531204057372
-0.4237357657064158,1.0002510744756818,2.500251947135119,0.00030481625846392053,1.0003533114842629
-0.4218612588718058,1.000250790496333,2.500252808037992,0.00030463318452635265,1.0003527242328392
-0.41998674125631014,1.0002497969413255,2.5002528401460062,0.00030462720537107444,1.0003511860093413
-0.4181122164269555,1.0002480354351413,2.500251974864585,0.00030436675803158074,1.000348614099522
-0.41623768745121276,1.0002455257626992,2.5002502410082674,0.0003035121984543354,1.0003450285095121
-0.41436315662099493,1.0002423477368594,2.500247740028737,0.0003018171245820045,1.0003405294528724
-0.4124886245626698,1.000238611385469,2.500244608035255,0.0002992312843096891,1.0003352586767649
-0.41061409046545533,1.0002344274441406,2.5002409790134292,0.0002958222392286982,1.0003293607709578
-0.4087395526312309,1.000229886555435,2.5002369593609,0.0002917313103583548,1.000322955707048
-0.4068650090924339,1.0002250507129387,2.500232617999734,0.00028711573136508737,1.0003161272740329
-0.40499045808954703,1.0002199558675382,2.5002279905752,0.0002821014988915244,1.0003089259994946
-0.4031158983228938,1.0002146208913711,2.500223091455495,0.0002767610332110052,1.000301380430207
-0.40124132895998554,1.000209057563846,2.500217926669398,0.00027112114345193233,1.0002935098983659
-0.3993667495234037,1.0002032781892913,2.500212503549587,0.0002651820978602316,1.000285334332755
-0.39749215972353813,1.0001972997554471,2.5002068358769103,0.0002589358784815362,1.000276879592394
-0.39561755934333914,1.0001911449656211,2.500200945070717,0.0002523799999419471,1.0002681787323924
-0.393742948158566,1.0001848411884307,2.500194858788163,0.00024552460476259553,1.000259270604535
-0.391868325900825,1.0001784184806508,2.5001886083960665,0.00023839361302109742,1.0002501973202587
-0.3899936922626157,1.0001719075414799,2.500182226387719,0.00023102212429842924,1.0002410016753291
-0.3881190469254944,1.0001653381109705,2.500175744392219,0.00022345183461319382,1.0002317251428323
-0.3862443895852454,1.0001587380491745,2.500169192060682,0.00021572659126272526,1.000222406721099
-0.3843697199867491,1.000152133038224,2.500162596733439,0.0002078886842929457,1.0002130825681281
-0.3824950379473614,1.0001455467122782,2.5001559836330154,0.00019997651091642566,1.0002037861705457
-0.38062034336127115,1.0001390009838778,2.5001493762907154,0.00019202388254719238,1.000194548747394
-0.3787456361944385,1.0001325163734267,2.500142796966553,0.00018406041661370235,1.0001853996413161
-0.3768709164774541,1.0001261122326695,2.5001362669305447,0.00017611243570394989,1.0001763665598928
-0.37499618429067094,1.0001198068321147,2.5001298065713216,0.0001682038809367598,1.000167475634757
-0.3731214397533292,1.0001136173352354,2.500123435361617,0.00016035709272176,1.0001587513365902
-0.3712466830218383,1.000107559706779,2.5001171717383253,0.00015259349279544965,1.000150216315849
-0.3693719142846471,1.0001016486042065,2.500111032955939,0.0001449337895024598,1.0001418912391973
-0.3674971337596609,1.000095897289128,2.5001050349572593,0.00013739786412741463,1.0001337946722078
-0.3656223416932024,1.0000903175783773,2.5000991922853335,0.00013000444741473192,1.0001259430323919
-0.36374753835976814,1.0000849198399906,2.500093518044202,0.0001227707903202794,1.000118350614481
-0.36187272405722054,1.0000797130292336,2.5000880239048517,0.00011571234125650598,1.0001110296748232
-0.3599978991106247,1.0000747047549097,2.500082720147212,0.00010884228768117969,1.0001039905552302
-0.3581230638702912,1.0000699013657333,2.500077615728384,0.00010217129326102535,1.0000972418274785
-0.35624821870886336,1.0000653080488553,2.5000727183692373,9570739699469491e-20,1.0000907904449003
-0.35437336401868585,1.0000609289356508,2.5000680346542703,8945602272996958e-20,1.0000846418939846
-0.3524985002093631,1.0000567672129284,2.500063570142154,8342004302603063e-20,1.0000788003451169
-0.3506236277028,1.0000528252394585,2.500059329485758,7759981112393661e-20,1.000073268805352
-0.34874874693344793,1.0000491046680156,2.500055316560511,719934000451214e-19,1.0000680492769656
-0.3468738583469411,1.0000456065726815,2.500051534599368,6659677990769573e-20,1.0000631429246174
-0.3449989623981119,1.0000423315805769,2.500047986332384,6140391296212869e-20,1.00005855025235
-0.3431240595503188,1.0000392800066682,2.5000446741287017,56406822853983466e-21,1.000054271289831
-0.3412491502749355,1.000036451990369,2.500041600139247,5159561504112469e-20,1.000050305786152
-0.33937423504883807,1.0000338476330393,2.500038766439359,4695855862812174e-20,1.0000466534091181
-0.33749931435635716,1.000031467135632,2.500036175170948,4248201251122432e-20,1.0000433139476004
-0.33562438869008154,1.000029310935751,2.50003382868389,3815036497298247e-20,1.0000402875143923
-0.3337494585509774,1.000027379843465,2.5000317296764956,3394603216552218e-20,1.0000375747473231
-0.3318745244491308,1.0000256751752177,2.500029881334544,29849469077528405e-21,1.0000351770066513
-0.32999958690494996,1.0000241988851206,2.500028287468299,25839204665320947e-21,1.0000330965672175
-0.32812464644922845,1.0000229536929768,2.5000269526465195,21891830886095052e-21,1.0000313368043008
-0.32624970362501043,1.0000219432081379,2.5000258823261854,17982054101854153e-21,1.0000299023721315
-0.32437475899020396,1.0000211720480154,2.5000250829761685,14082784133503002e-21,1.0000287993737573
-0.32249981311920584,1.0000206459498668,2.500024562192893,10165166348301296e-21,1.000028035520763
-0.32062486660512396,1.0000203718743021,2.500024328805737,61986035428473385e-22,1.0000276202810863
-0.31874992006237873,1.0000203580988116,2.500024392969913,215078153519597e-20,1.000027565012989
-0.31687497412922455,1.0000206142996517,2.5000247662445454,-2012302876099539e-21,1.0000278830832345
-0.31500002947054495,1.000021151620182,2.5000254616535167,-6326288018386046e-21,1.0000285899672063
-0.3131250867802776,1.0000219827233519,2.5000264937262364,-10828402342844153e-21,1.000029703328174
-0.31125014678404217,1.0000231218259539,2.5000278785155507,-15557393820945354e-21,1.0000312430726688
-0.309375210241515,1.0000245847130425,2.500029633591034,-20553424378387776e-21,1.0000332313796056
-0.3075002779491925,1.0000263887313108,2.500031778006578,-2585788137170924e-20,1.0000356927009209
-0.30562535074332126,1.0000285527601853,2.5000343322412983,-3151315140893881e-20,1.000038653731208
-0.3037504295020737,1.000031097159104,2.5000373181125894,-3756238727269802e-20,1.0000421433432471
-0.301875515147692,1.000034043688829,2.5000407586596274,-4404925244314992e-20,1.000046192485385
-0.3000006086480721,1.0000374154039269,2.5000446779946803,-51017647922112273e-21,1.0000508340359635
-0.29812571101843865,1.000041236513629,2.5000491011193215,-58511419973019614e-21,1.0000561026108887
-0.29625082332240876,1.0000455322082602,2.5000540537020917,-6657405983761359e-20,1.0000620343212514
-0.29437594667258504,1.0000503284476843,2.5000595618131887,-752483685265951e-19,1.000068666477534
-0.2925010822297375,1.0000556517081007,2.5000656516115143,-8457610389493181e-20,1.0000760372370776
-0.2906262312024162,1.0000615286837453,2.500072348979963,-9459748794300767e-20,1.000084185191794
-0.288751394843347,1.0000679859410244,2.5000796791064506,-0.00010535071163698988,1.000093148893738
-0.2868765744460596,1.0000750495256256,2.5000876660126066,-0.00011687130193427148,1.0001029663188172
-0.28500177133957183,1.0000827445270024,2.500096332037275,-0.00012919131445243524,1.00011367427223
-0.283126986894888,1.0000910946057158,2.5001056972842295,-0.00014233792237622933,1.0001253077392716
-0.281252222511489,1.00010012148854,2.500115779043233,-0.00015633279728277246,1.000137899183326
-0.2793774796077156,1.0001098444325685,2.5001265911893036,-0.00017119160879089222,1.0001514777877274
-0.2775027596124037,1.0001202796531237,2.500138143556675,-0.00018692306614904365,1.0001660686303735
-0.2756280639535376,1.0001314397028813,2.500150441273225,-0.00020352807021832033,1.0001816917726873
-0.2737533940425624,1.0001433327827518,2.5001634840296822,-0.00022099894109438382,1.0001983612400565
-0.27187875127843114,1.0001559619576985,2.500177265245456,-0.00023931931500110234,1.0002160838667034
-0.27000413702869,1.0001693242470204,2.500191771084179,-0.0002584629871827445,1.000234857980196
-0.26812955259535975,1.0001834095605582,2.500206979269715,-0.0002783922520891423,1.000254671910773
-0.26625499920392565,1.0001981994673683,2.5002228576700696,-0.0002990565397418621,1.0002755023339982
-0.26438047798294667,1.0002136658248988,2.5002393626738044,-0.00032039125629291674,1.000297312501497
-0.26250598994459634,1.0002297693698958,2.5002564374934013,-0.00034231729699304156,1.0003200504822223
-0.26063153598990074,1.0002464584547526,2.500274010667425,-0.0003647407810307929,1.0003436475944174
-0.2587571169138878,1.0002636680474732,2.500291994963207,-0.0003875544736500225,1.0003680170996299
-0.2568827333684941,1.0002813189799233,2.5003102867173403,-0.0004106408736336523,1.000393053049821
-0.2550083858369192,1.0002993170722045,2.500328765145174,-0.0004338720904033183,1.000418628797989
-0.2531340745628505,1.0003175512543814,2.5003472904124284,-0.0004571042404554735,1.0004445941661344
-0.251259799412778,1.0003358891805165,2.5003656983373443,-0.0004801622738113627,1.0004707696187924
-0.2493855596946431,1.0003541685258526,2.500383789103275,-0.0005028133660692043,1.000496935516936
-0.24751135393024568,1.000372182050605,2.5004013072179134,-0.0005247290405272476,1.0005228143194131
-0.2456371796244372,1.0003896549024904,2.5004179105012474,-0.0005454573184952064,1.0005480439368555
-0.24376303331221047,1.0004062137845577,2.500433127569465,-0.0005644420055044942,1.0005721416253286
-0.24188891128686868,1.0004213497984964,2.500446306570045,-0.0005811782923248789,1.0005944600014633
-0.24001480926615879,1.0004343793489028,2.500456561711829,-0.000595145919084862,1.0006141394984347
-0.23814072241457068,1.000444406982367,2.5004627237667183,-0.0006057708954069945,1.0006300606962615
-0.23626664803725914,1.0004502914174729,2.5004632973663328,-0.000612923366578271,1.000640796872382
-0.23439257933162866,1.0004506118963283,2.500456422513829,-0.0006154988962132349,1.000644562245556
-0.23251850956292708,1.000443625912678,2.500439830027514,-0.0006127025034938761,1.0006391439446742
-0.23064442510554925,1.0004272017723346,2.5004107708170493,-0.0006025352278765445,1.000621796086399
-0.2287703041228592,1.00039870762428,2.5003658960989212,-0.0005821986298602631,1.0005890725003754
-0.22689610826086345,1.0003548517172067,2.5003010805311914,-0.0005467233626934483,1.000536593154908
-0.2250217720504397,1.0002914861044416,2.5002112012112714,-0.00048780507785193086,1.0004587633661925
-0.2231472016529151,1.0002034048316404,2.5000899083280412,-0.00039305534893642284,1.000348489885939
-0.22127228649082314,1.000084186472215,2.4999294464265294,-0.00024905235568517406,1.00019696300885
-0.2193969154908014,0.9999261383474348,2.4997205951472075,-4436792117254229e-20,0.999993582437277
-0.21752096816987185,0.9997203851371688,2.499452783255495,0.00023297520596989588,0.9997260830432807
-0.21564433313559758,0.9994571100620627,2.4991143914646368,0.000593278849513756,0.9993808675320233
-0.21376694366181206,0.9991259133471505,2.4986932073225665,0.0010414443483244902,0.9989434931506146
-0.21188871546945745,0.9987161896206537,2.4981769183198588,0.0015815344849083365,0.998399176924347
-0.21000951937558288,0.9982174028735176,2.4975535023151756,0.0022198933071809323,0.9977331506673456
-0.2081291559848375,0.9976191284330833,2.496811356546117,0.00296748760302746,0.996930689207387
-0.20624731375303262,0.9969107894291603,2.4959390642656576,0.0038429344534500675,0.9959767204222046
