position,density,energy,velocity,pressure
-0.598125,0.5416666666666646,2.5,0,0.5416666666666645
-0.59625,0.6234064651471283,2.5,0,0.623406465147128
-0.594375,0.7005171413057901,2.5,0,0.70051714130579
-0.5925,0.7703979942388643,2.5,0,0.7703979942388642
-0.590625,0.8311074785242627,2.5,0,0.8311074785242626
-0.58875,0.8814940848006564,2.5,0,0.8814940848006563
-0.5868749999999999,0.9212523002607187,2.5,0,0.9212523002607185
-0.585,0.9508781950071749,2.5,0,0.9508781950071746
-0.583125,0.9715280147034997,2.5,0,0.9715280147034995
-0.5812499999999999,0.9848070594233429,2.5,0,0.9848070594233427
-0.579375,0.9925231338290746,2.5,0,0.9925231338290744
-0.5775,0.9964430440446678,2.5,0,0.9964430440446677
-0.5756249999999999,0.9980901813511504,2.5,0,0.99809018135115
-0.57375,0.9986127629063382,2.5,0,0.998612762906338
-0.571875,0.9987384417861913,2.5,0,0.9987384417861911
-0.57,0.9988166148365839,2.5,0,0.9988166148365836
-0.568125,0.9989356970441665,2.5,0,0.9989356970441663
-0.5662499999999999,0.9990829030787931,2.5,0,0.999082903078793
-0.564375,0.9992391799739321,2.5,0,0.999239179973932
-0.562249495564681,0.9994097949931049,2.499364575007165,0.0009801426360030027,0.9991561027314775
-0.5605725136678286,0.9995339610687416,2.499527564595546,0.00010069588420093825,0.9993453562692597
-0.5587741112750741,0.9996535280643324,2.4996510503048315,-0.00022454015893883002,0.9995143237525816
-0.5569265323835227,0.999759977132354,2.4997569681217247,-0.0003617399932067292,0.9996630999483628
-0.5550496818333981,0.9998480536171697,2.4998452606422243,-0.0003620760414086319,0.9997863781373082
-0.5531476810862899,0.9999129200246881,2.4999110352888847,-0.00021601996272660427,0.9998774042105759
-0.5512250506461652,0.9999509142572724,2.4999495871930204,6958877697435772e-20,0.9999307119879841
-0.5493129494357253,0.999961977416049,2.4999604930131905,0.0003145541623589267,0.9999461384878134
-0.5474277739089038,0.9999521387525185,2.499950354239059,0.000388269820979745,0.9999323544345686
-0.5455579151271345,0.9999315620821693,2.499929605879222,0.00034850249542810587,0.9999036511610497
-0.5436973800904187,0.9999121389707089,2.499910190173062,0.0002301206459501274,0.9998766245103633
-0.5418422037703127,0.9999045865317617,2.499902747660071,6460326074147772e-20,0.9998661773541238
-0.5399884765245805,0.9999151741275908,2.4999134582855693,-0.00011592558988086926,0.9998810110477532
-0.5381331881314649,0.9999434803254904,2.499941935165807,-0.0002752483117980568,0.9999205545017315
-0.5362710032568512,0.9999820030506553,2.4999808325451833,-0.0003676944660158353,0.9999744176507173
-0.5343930166176583,1.0000174992048985,2.5000170412779883,-0.0002994418132146181,1.000024198108526
-0.5324862786515623,1.0000333045882177,2.500033420867544,386601332133821e-19,1.0000464889293073
-0.5305680256267387,1.0000164230361892,2.50001579950605,0.0004282912389103841,1.0000227226549205
-0.5286791271139443,0.9999773785146971,2.4999756449147674,0.0005070660105638764,0.9999679217799405
-0.526812779623878,0.9999372715645171,2.499934956107835,0.00038372524739543824,0.9999118434611517
-0.5249557752382751,0.9999136058332756,2.4999110742346398,0.000178259941569366,0.9998788229749523
-0.5231017301323098,0.9999150366253416,2.499912445056369,-48265945148447076e-21,0.9998808373807655
-0.52124441837313,0.9999395805298867,2.499937073336883,-0.0002332703187984695,0.9999151114352656
-0.5193797703649836,0.9999766047361189,2.4999744619406283,-0.0003251989063932389,0.9999668778730468
-0.5175041281524684,1.0000119330749502,2.5000104054204315,-0.00027562305863245015,1.0000163793572936
-0.5156158328980299,1.0000334630620946,2.500032443824562,-60041419143681504e-21,1.000046631432527
-0.5137201063636994,1.0000351123851823,2.500034045790961,0.0002083434226703103,1.0000489996695379
-0.5118295371340835,1.000018651153585,2.500017014609155,0.00034754342877023537,1.000025950653129
-0.5099501689367638,0.9999924937851559,2.499990227274195,0.0003522751342495281,0.999989358212881
-0.5080798607186225,0.9999680181068413,2.4999654080257616,0.0002667503361940396,0.9999551816069543
-0.5062144427892703,0.9999555131128969,2.4999529506943645,0.00012819408433753615,0.9999377794176775
-0.5043508013152976,0.9999605553857449,2.499958394368948,-2599660481012517e-20,0.999944907710077
-0.5024861110469628,0.9999816768360359,2.499980174155623,-0.00015454438457658168,0.9999745045042528
-0.5006170822883967,1.0000107108134826,2.5000099978836463,-0.0002113033407323008,1.000015176840017
-0.49874120341063227,1.0000365151805144,2.5000365165389127,-0.00015568589160071708,1.0000513546932759
-0.4968577521497104,1.000050239872235,2.5000505974733267,2063023220876398e-20,1.0000706186998516
-0.49497095295361576,1.0000486954879775,2.500048870191218,0.00019896192714325165,1.0000684491978984
-0.49308763057667876,1.0000348840037672,2.5000344838754205,0.0002718990955937315,1.0000490481027111
-0.49121066705164534,1.0000160160899785,2.5000149819109128,0.00025711317832673603,1.000022543840995
-0.4893390652342977,1.0000002666130472,2.4999987928128773,0.0001874597134537282,1.0000003892417795
-0.4874696954339369,0.9999937756341846,2.4999921567037524,9484918894157933e-20,0.9999911666827465
-0.4856007961205556,0.9999986868680765,2.499997202957415,-38887947635946287e-23,0.9999978767387313
-0.4837308866037093,1.0000126632201327,2.500011490152267,-6956352268166161e-20,1.0000172684642583
-0.48185870271151865,1.0000301722608287,2.5000293294209777,-9467161058677301e-20,1.0000416290672844
-0.47998324147364746,1.0000450018350204,2.50004434341689,-5765030754672514e-20,1.0000622863363913
-0.4781041954038137,1.0000527188926431,2.5000519725153563,4952816760100664e-20,1.0000730398781137
-0.47622341895707093,1.000052064130693,2.500050928067772,0.0001522313949898778,1.0000721210227732
-0.47434382449864554,1.0000450193403199,2.500043302391612,0.00019124861781015534,1.0000623037820682
-0.47246754209399655,1.0000357311318067,2.5000334320379918,0.00017991057198172563,1.000049397139882
-0.47059427122048736,1.0000287900246823,2.5000260649764714,0.00013792257031344885,1.0000398198246376
-0.46872225732998396,1.0000275472003521,2.500024623874691,8325252601651372e-20,1.0000382454722339
-0.46685044068036974,1.000032999058663,2.5000300941672773,29129358300350894e-21,1.0000460540056826
-0.46497813040379316,1.0000435668801686,2.5000408205614555,-9569387219350167e-21,1.0000610262011072
-0.4631046891603355,1.0000559134028943,2.5000533639372553,-2091431339017588e-20,1.000078484303491
-0.46122972105345583,1.0000664094105274,2.5000640123324716,3225450094605845e-21,1.0000933408772432
-0.4593531254283563,1.0000725063539475,2.5000701850229614,6472835335211247e-20,1.0001020194151231
-0.457475336425957,1.0000734667047608,2.5000711772249358,0.00012712636210342917,1.0001034799638573
-0.45559768956669694,1.0000703325848783,2.500068119514086,0.00015719113921041294,1.0000991787952633
-0.45372187265059155,1.0000653335085812,2.5000633530523038,0.00015608792542840842,1.0000922417406268
-0.4518476963271967,1.0000609890623702,2.50005947615615,0.00013591889134481006,1.0000862016972742
-0.44997429294015845,1.0000592310889365,2.500058435121327,0.00010961588999617248,1.0000837675996064
-0.44810102615977104,1.0000607924428029,2.5000609076940696,8426099980274954e-20,1.000085969392698
-0.44622755008966386,1.0000650397289848,2.5000661456363193,6466885187997713e-20,1.0000919218779516
-0.44435356724123287,1.000070331556778,2.500072362949627,56766230451811895e-21,1.0000993230439428
-0.4424788768711178,1.0000747430589787,2.5000774995902937,6274653336024705e-20,1.0001054664255842
-0.44060334550554,1.000076809497422,2.5000799963111904,7990905121578756e-20,1.0001082833166886
-0.4387268457815025,1.0000759640527468,2.500079249431324,0.00010264959247437465,1.0001069596091903
-0.4368503761407737,1.0000725791482747,2.5000756542644527,0.00011745374366156514,1.000101999377675
-0.43497490977092673,1.000067710760315,2.5000703365136547,0.00011756450392446558,1.0000948720688192
-0.4331003617968968,1.0000626754057154,2.500064698918806,0.0001076188163129883,1.0000874213559356
-0.43122632149254636,1.0000586127250324,2.5000599580443845,9349181736251857e-20,1.0000812545694215
-0.4293524061509455,1.000056161736872,2.5000568026159975,7889974358448877e-20,1.000077290775124
-0.42747837746409956,1.0000553448403497,2.5000552695853995,6612062791796407e-20,1.0000755968572994
-0.42560406340465196,1.0000556963029854,2.5000548772114484,5710907961086218e-20,1.0000755628829914
-0.42372931338964565,1.0000565867306555,2.5000549626676216,53294122842129205e-21,1.0000763504795478
-0.4218539236712161,1.0000575813754622,2.5000550546706206,59102724057249085e-21,1.0000773889803398
-0.41997796629807715,1.0000586385396322,2.5000550840298374,797669969309127e-19,1.0000786489712066
-0.41810210988541613,1.0000600998322349,2.5000553822098674,9701058311133809e-20,1.0000806257844022
-0.41622681836491404,1.0000625318673062,2.500056524573822,965402338645531e-19,1.0000841155065137
-0.41435208103759896,1.0000665027318643,2.5000591044594103,8516658798295997e-20,1.0000899024271
-0.4124776892933013,1.0000723683096682,2.500063516954051,6975280915782465e-20,1.0000984620756257
-0.4106033999772992,1.000080131482711,2.5000698159835464,5593164362697102e-20,1.0001097678501276
-0.40872904215257844,1.00008941816263,2.5000776885292324,458200351736995e-19,1.000123261573535
-0.40685448764756016,1.0000995911790163,2.5000865666919343,43505272409819234e-21,1.0001380167421994
-0.4049796429429841,1.0001099807547327,2.500095856282994,5374643072521832e-20,1.0001530647298236
-0.4031044885448336,1.000120118617851,2.500105167121019,8250924790507093e-20,1.0001677254757215
-0.40122920626901587,1.000129860264235,2.5001144276218654,0.00012131600644929329,1.000181780376126
-0.3993539986410338,1.0001393696863106,2.5001238583455603,0.00015490107144086715,1.000195450778356
-0.3974789864457646,1.000148999559605,2.500133841518357,0.00017685787753237198,1.000209229231235
-0.39560420802796953,1.0001591229993605,2.5001447452668972,0.0001857167566266087,1.000223642077872
-0.39372960931669565,1.00016997046486,2.500156757665285,0.00018502821855171422,1.000239018532707
-0.3918550929235257,1.0001815170526651,2.5001697768673847,0.0001814529222384532,1.0002553303703796
-0.38998057893121835,1.0001934551397589,2.500183392758447,0.00018017332922397658,1.0002721517774413
-0.3881060252969188,1.0002052702249027,2.5001969782463553,0.00018394336091313244,1.0002887648548655
-0.3862314212376129,1.0002163946912102,2.500209863356987,0.0001931493898660064,1.000304375227413
-0.38435678450295013,1.000226367895805,2.500221513137483,0.00020553377133145193,1.0003183372601263
-0.3824821473897186,1.0002349402389121,2.5002316400165268,0.00021756934797048693,1.0003303013430753
-0.3806075380718065,1.0002420988690024,2.500240227938602,0.00022625220163153265,1.0003402508809778
-0.3787329672994317,1.0002480258924162,2.5002474817566998,0.00023071541268839392,1.0003484441629822
-0.37685843116049206,1.0002530165608792,2.5002537326606906,0.0002316553280762091,1.000355299867389
-0.3749839239063739,1.0002573876966976,2.500259333369462,0.00023001877260671937,1.0003612686774788
-0.3731094367516366,1.000261402893155,2.500264572953715,0.00022683689073142304,1.0003667281930348
-0.37123496234848957,1.0002652329945056,2.5002696325287195,0.00022277182312301156,1.0003719269419689
-0.36936049557906303,1.000268956109824,2.500274587048305,0.00021822419035852302,1.0003769831178755
-0.36748603521659,1.0002725849644465,2.5002794385788447,0.00021321123694367805,1.0003819213498906
-0.3656115809369952,1.0002761040817296,2.5002841602214283,0.00020775520940071308,1.0003867236917756
-0.36373713389990975,1.000279501364311,2.5002887326732712,0.00020161643043515933,1.0003913735694756
-0.3618626955475542,1.0002827853171614,2.500293163367671,0.00019459964806263903,1.0003958804501232
-0.3599882671393227,1.000285987631895,2.5002974881042026,0.0001865743330740551,1.0004002846127835
-0.35811384939400737,1.0002891562641256,2.5003017615166474,0.00017750050459195657,1.0004046488264944
-0.3562394426044315,1.0002923452054204,2.5003060439948688,0.00016738943343207917,1.0004090452180243
-0.3543650467641845,1.000295605538895,2.5003103906554536,0.00015628220759813111,1.0004135434508943
-0.35249066173382326,1.0002989801544728,2.5003148451776833,0.00014423046742051825,1.0004182034408158
-0.3506162873878768,1.0003025023703498,2.5003194386432237,0.0001312818445433237,1.0004230730678332
-0.3487419237071807,1.000306197245486,2.50032419170318,0.00011747367877912578,1.0004281894226534
-0.34686757080801295,1.0003100839748302,2.500329117955379,0.0001028336367826036,1.0004335815757477
-0.3449932289294437,1.0003141781644915,2.5003342269933757,8738391252489674e-20,1.0004392733459777
-0.343118898398038,1.000318493396717,2.5003395264071107,7114657617775025e-20,1.0004452853248778
-0.3412445795832895,1.0003230418350817,2.5003450224932933,5414843935511412e-20,1.0004516357644975
-0.3393702728575076,1.0003278339906394,2.500350719909133,3642416797842859e-20,1.0004583403880243
-0.33749597857291463,1.000332877980423,2.500356620738434,1801741497762115e-20,1.0004654114909564
-0.3356216970493568,1.000338178613798,2.500362723404248,-10193278893010833e-22,1.0004728567544332
-0.3337474285682597,1.0003437365035535,2.500369021654021,-20625343472777187e-21,1.0004806780517286
-0.3318731733694793,1.0003495472752233,2.50037550368089,-40732327312627837e-21,1.00048887037529
-0.32999893164649846,1.0003556008614036,2.500382151345074,-6126464333948946e-20,1.0004974208860933
-0.3281247035348624,1.0003618807803227,2.5003889393540595,-8213889335467151e-20,1.000506307965396
-0.32625048909689347,1.0003683632651355,2.5003958342290313,-0.0001032629509834878,1.0005155000915915
-0.3243762883036171,1.0003750161592422,2.500402792965152,-0.00012453485037262687,1.0005249544027646
-0.32250210101527416,1.0003817975385616,2.5004097613525365,-0.0001458419658340101,1.0005346148659715
-0.32062792696581155,1.0003886541007834,2.5004166720198366,-0.00016706076432441573,1.0005444100931575
-0.31875376575299014,1.0003955193930318,2.5004234422709426,-0.00018805688109646465,1.000554250945752
-0.31687961682790877,1.000402311883967,2.500429971662878,-0.00020868438332371662,1.0005640280506778
-0.3150054794783615,1.0004089326672778,2.500436138975747,-0.0002287830423354279,1.000573609072422
-0.31313135278472387,1.0004152623817002,2.500441797941361,-0.000248170980404919,1.0005828353517512
-0.31125723552484813,1.0004211562401506,2.500446770255798,-0.00026663006027270947,1.0005915164785069
-0.3093831260717849,1.0004264354865298,2.5004508336502744,-0.0002838955837837056,1.000599420623475
-0.3075090223615017,1.0004308727864477,2.5004537018309994,-0.0002996692916667515,1.000606257262673
-0.30563492235433787,1.0004341691473135,2.5004549934136024,-0.0003137437492116573,1.00061164878859
-0.3037608227216786,1.0004359206382676,2.5004541881229767,-0.00032577775217895657,1.000615088015634
-0.30188672069824396,1.0004355738525814,2.5004505695379726,-0.00033567132656600997,1.0006158793225455
-0.3000126098058613,1.0004323715042267,2.5004431567012504,-0.00034271492790129176,1.0006130647173548
-0.2981384836969915,1.0004252936599518,2.5004306320055543,-0.0003462204600369383,1.000605342000273
-0.29626433052730927,1.0004130022006659,2.5004112754200727,-0.0003445694812958326,1.000590985198463
-0.2943901353444967,1.0003937967265875,2.5003829156604245,-0.00033554623838305086,1.0005677783927922
-0.29251587953872527,1.0003655881757645,2.500342906427632,-0.00031637634756123397,1.0005329715825753
-0.29064154108650614,1.0003258913885433,2.50028812940627,-0.00028384187679849536,1.0004832605655196
-0.28876708854780997,1.0002718284221568,2.5002150141565482,-0.00023370880776190807,1.0004147801674002
-0.28689248882752494,1.000200128546583,2.500119557224303,-0.00016166367962678311,1.0003230923672564
-0.2850176968383019,1.00010710780381,2.499997318543806,-6341102218051869e-20,1.0002031472795898
-0.2831426554738779,0.9999886132900303,2.499843375302105,661553034680553e-19,1.0000491979200872
-0.2812672706065629,0.9998399250010376,2.499652222457316,0.00023548983837177431,0.9998546606998537
-0.27939142482071244,0.9996556309687744,2.4994176361275176,0.000455324410271106,0.9996119440708275
-0.277514987166331,0.9994295065554132,2.4991325342011694,0.0007370377221776548,0.9993122884724541
-0.27563779480812645,0.9991544388114015,2.4987888816134713,0.0010939132089095474,0.9989456739449778
-0.27375967868500084,0.9988224464378903,2.4983777022354117,0.0015393826922282517,0.9985008625146126
-0.2718805123402326,0.9984248287718265,2.4978892412354163,0.0020830238449344425,0.9979656178842953
-0.2700001773142254,0.9979524278796434,2.4973132645918086,0.002731792977208638,0.9973270786886896
-0.2681185676295604,0.9973959744914469,2.496639469656177,0.0034902819201392964,0.996572239690948
-0.2662355677089989,0.9967464312825659,2.495857910467944,0.004361359553950479,0.9956884202675885
-0.264351028730223,0.9959952449911793,2.494959334711332,0.005348597416688443,0.9946635982152805
-0.2624646681481985,0.9951343865568909,2.493935286348175,0.006461784596584554,0.9934864475246415
-0.2605761059906522,0.9941561988859444,2.4927779845170863,0.007717290706921305,0.9921461077637911
-0.25868488070555706,0.9930530369359472,2.4914799414253315,0.009137990172794824,0.9906316749345837
-0.25679041922698487,0.9918167678876141,2.4900333800968175,0.010754101047999027,0.9889315175409923
-0.25489213641209046,0.9904383653618382,2.488429706469262,0.01259824970095182,0.9870327406543621
-0.25298959213643774,0.9889077716917478,2.4866592283726106,0.014696677936528537,0.9849210398046029
-0.2510825018615157,0.9872140563454037,2.484711170414602,0.01706493135576841,0.9825809885813216
-0.24917072498079496,0.9853459848010506,2.4825741499670846,0.019704689159277707,0.9799969033137813
-0.24725429286908265,0.9832930108898239,2.4802371709792,0.022601223814626523,0.9771542841121494
-0.24533327335214536,0.9810463521237244,2.4776908005309126,0.025727823837264772,0.9740413540767445
-0.24340755108450463,0.9785999006226755,2.4749282838002724,0.02905600025194091,0.9706503420081103
-0.24147669720874795,0.9759508360059542,2.4719464387030534,0.03256535038685464,0.9669783086534577
-0.23954000647300197,0.973099852991974,2.468746184211531,0.03624977903003774,0.9630273918969461
-0.23759642216095864,0.9700505716315394,2.4653321724063018,0.04012507352233184,0.9588039000400526
-0.23564462420106103,0.9668084926242297,2.4617118377034886,0.04422974832758223,0.9543167586581629
-0.2336834019154058,0.9633799385916503,2.4578942356177698,0.04861385368156755,0.9495759246699078
-0.23171192957988032,0.9597707933950637,2.453888440396853,0.053325645967003975,0.9445905572183649
-0.2297298126671153,0.9559851542756753,2.44970165103617,0.058400441725658114,0.9393671398959885
-0.22773726106277453,0.95202484768325,2.445338031897452,0.06384566812569545,0.9339088480274685
-0.22573496595278117,0.947889391455791,2.440798034616577,0.06963450337340316,0.9282156284065778
-0.22372373722838695,0.9435765054980713,2.4360785166191725,0.07570974392034871,0.9222851157146061
-0.22170401795440134,0.9390831535432472,2.431173777691113,0.08199680486021116,0.916114297447962
-0.21967571600753732,0.9344075812052046,2.4260780444415877,0.08841694607075865,0.9097024782598154
-0.21763813745463864,0.9295514624572323,2.4207884308588548,0.09490321242342029,0.9030542952375967
-0.21558980809842784,0.924521127813664,2.415307146248704,0.10141929432806018,0.8961813590521507
-0.21352880685002687,0.9193288267464599,2.4096437170675284,0.10796638606475728,0.8891037618677696
-0.21145340851258487,0.9139934476911893,2.4038164232025054,0.11457903452447588,0.8818506731968512
-0.20936233362569176,0.9085389229711519,2.397850947515336,0.12131892206781247,0.8744577159751072
-0.20725505917082232,0.902991519883299,2.391777412706688,0.12825958494908796,0.8669628353644869
-0.2051319710775132,0.8973761120260421,2.385625872261929,0.13546791598478036,0.8594009025490752
-0.20299419234295765,0.8917118771665443,2.379420648758659,0.14298629230724172,0.8517977718466481
