position,density,energy,velocity,pressure
-0.6903837366075333,0.08424544287837224,4.340793152242609,-4.162368075972625,0.15013260999987016
-0.6604982725056754,0.10740899084189413,4.767421942974234,-2.927162529252624,0.20724708967154432
-0.6406907134794546,0.16000208805953456,4.528006008617059,-1.878679454125546,0.27939265404647373
-0.6290908367037918,0.21539864804400502,4.223394473586108,-1.6346706245534475,0.35329497903552304
-0.6195510514271125,0.27062521489116953,4.0199370807848105,-1.3381832937869396,0.4220841055212253
-0.6122966568614191,0.32216038048554235,3.8484934375830964,-1.1633230530546161,0.48393013063015267
-0.6061268369522775,0.3730405086593014,3.7113797205529195,-1.0200896504285215,0.5397061061545829
-0.6006515433410625,0.426772253672428,3.579966603909805,-0.9011468988585426,0.5946556735633176
-0.5956661764236272,0.48303259424996525,3.4496752167256384,-0.7799694591127169,0.6472578115612064
-0.5911313284109424,0.5390259363346765,3.325355950735492,-0.6581687780770541,0.6959149086474374
-0.5872613180467743,0.5895172477699328,3.2157443350858177,-0.5510165758415583,0.7363258891118444
-0.5838579537890987,0.6352163703860173,3.1196349756503174,-0.4582427947761597,0.770363585719383
-0.5806663265745641,0.6787526563366534,3.0320771552525496,-0.3742132282635519,0.8012763351236527
-0.5776266422778505,0.7205377555516356,2.9523331513170845,-0.2988263341978038,0.829786801661179
-0.5747514952373916,0.760173636914877,2.8802137724134456,-0.2341963073755515,0.8560294455287486
-0.5720280685492067,0.7974164120537963,2.815069047164581,-0.179649883941438,0.8798571875847855
-0.5694404215274804,0.8320150953075521,2.7565564361777186,-0.13452081885433168,0.9012930404196527
-0.5670208794035106,0.8631053007082915,2.7055612480135727,-0.09911268490147196,0.9199250495722324
-0.5648144285455164,0.8899667877711314,2.6623084635951955,-0.0755654666630032,0.9353913783262452
-0.5627475492640474,0.9131275027895923,2.626075722066123,-0.05854187227969597,0.9484445688187078
-0.5607592422248581,0.9330407165870384,2.5958745968458636,-0.04486006037207143,0.9595653114268667
-0.5588143115677097,0.9499211705933371,2.57114178564,-0.0324806003455137,0.9690494260051459
-0.5569040152322055,0.963861939158987,2.5512889830308003,-0.02148726576391301,0.9769594500541092
-0.5550122910575783,0.9750834417208386,2.535692735651177,-0.011835727682203263,0.983449880320572
-0.5531208968391216,0.9838397542974548,2.5237184022915997,-0.0032979195116989296,0.988653010461736
-0.551225704871569,0.9903788424582577,2.514845125064407,0.0038505795689266287,0.9926927051057962
-0.5493217183983897,0.9950144879125059,2.508521691125519,0.009448030747247996,0.9957194348641476
-0.5474172165685446,0.9980864836813069,2.5042156469824697,0.01270171200399357,0.9978829487021126
-0.5455253897065905,0.9999630726415352,2.5014175337766362,0.013358105965434356,0.999351017657719
-0.5436467213708587,1.0010103335787142,2.499675022475611,0.01226100068996527,1.0003037131143515
-0.5417815691356963,1.0015341335337395,2.4986290536080706,0.009794020903474032,1.0008951140641225
-0.5399273469338118,1.0017597141655141,2.498020592565689,0.006477153932906155,1.001243361680507
-0.5380808509354198,1.0018302746838954,2.4976838860994297,0.0028666844096701238,1.001428383179645
-0.5362354387855041,1.0018203802693786,2.497527238578831,-0.0003601256519351285,1.001497077212121
-0.5343848729556362,1.001757243752769,2.497511165141725,-0.002673328466837152,1.001474139281606
-0.5325267635783587,1.0016433283158963,2.4976235050991833,-0.0040450072338595825,1.0013739514253461
-0.5306608515560521,1.0014739104728803,2.4978554505738058,-0.0045259406639709815,1.001208862940617
-0.5287872124988572,1.0012485458026752,2.498189860878481,-0.004164747613253902,1.0009938358688846
-0.5269072073766053,1.000976931610157,2.4985968451597516,-0.003161072495124935,1.0007480563952242
-0.5250235900861787,1.000679564997237,2.4990360618207554,-0.0019355372015445209,1.0004941678298593
-0.5231397788629236,1.0003839727530368,2.4994630313280695,-0.0009096289567634637,1.0002554670428714
-0.5212578132391579,1.0001181762528077,2.499837954356946,-0.0002469881003276663,1.000051939263572
-0.5193785149112519,0.9999043531124209,2.5001324869391377,4004128725748374e-20,0.9998968775321921
-0.5175015867942541,0.9997546773601405,2.500333446538186,44709581807760804e-21,0.9997952069024245
-0.5156263437241088,0.9996703745975289,2.50044262627839,-0.00011421219327187977,0.9997439729756858
-0.5137517703450378,0.9996435271894348,2.5004735428752864,-0.0002831023099494149,0.9997344077528619
-0.5118773966826177,0.9996603490483255,2.5004466392029387,-0.00041426720879399886,0.9997546070461234
-0.5100028742455918,0.9997048235253468,2.5003843767206027,-0.0004893504675066339,0.9997921121709918
-0.5081279957998845,0.9997618924153766,2.5003071640891936,-0.0004942421825760182,0.9998359610387595
-0.506252755979388,0.9998196612097014,2.5002306650235777,-0.0004373097819411947,0.9998779845499024
-0.5043772357353716,0.9998703687055526,2.5001647427856355,-0.0003391447156344331,0.9999132627327499
-0.5025015896806263,0.9999102701672926,2.50011381766316,-0.00022852830320050228,0.999939844951569
-0.5006259633149379,0.9999388301316027,2.500078088722601,-0.0001287034079782791,0.9999580174127045
-0.49875045739135493,0.9999576169573741,2.5000550883704045,-5329174371418004e-20,0.9999694148877265
-0.49687510660500306,0.9999691865133263,2.500041198168507,-4500275882100499e-21,0.999976177469267
-0.4949999044348313,0.9999761711571495,2.5000328511302463,20751429052182334e-21,0.9999803009274302
-0.4931248298578207,0.9999806999757057,2.500027265863893,26809279629622636e-21,0.9999832628643612
-0.491249833392922,0.9999841744581474,2.500022695586005,22475788553252776e-21,0.9999859250394537
-0.48937487102213867,0.9999873137545339,2.500018322226001,14927497409023878e-21,0.9999886274470297
-0.48749991706357154,0.9999903402863461,2.5000139769033276,7485946966031257e-21,0.9999913666988656
-0.485624958096461,0.9999931947750205,2.500009836215836,16288651902698108e-22,0.9999939754533584
-0.4837499873199913,0.9999957167277177,2.500006176596789,-19302134312692543e-22,0.9999962603072571
-0.4818750040311022,0.9999977634368246,2.50000321880451,-33860780260858614e-22,0.9999980838227139
-0.48000001030624995,0.9999992669306573,2.5000010596561437,-32996974284862244e-22,0.9999993952229885
-0.4781250098263753,1.000000242027686,2.4999996704638967,-23791835606736475e-22,1.000000223424488
-0.47625000630538145,1.0000007669898359,2.499998930900011,-12504781579435913e-22,1.0000006517812434
-0.47437500178904607,1.0000009541993713,2.4999986738600315,-1876488099393728e-22,1.0000007889235725
-0.47249999800880876,1.0000009216468206,2.499998727019795,5802786151918337e-22,1.0000007433285891
-0.4706249958350519,1.0000007720316602,2.4999989424077964,9678649082367847e-22,1.0000006059484001
-0.4687499952294112,1.000000581956903,2.4999992110784293,10319081913220629e-22,1.000000442188881
-0.46687499571964663,1.0000004000703018,2.499999464922591,8870180438583451e-22,1.0000002917201172
-0.4649999968182831,1.0000002510776929,2.4999996702489042,6390809046588783e-22,1.0000001731029722
-0.4631249980421865,1.0000001423668325,2.499999817884258,38401283367608345e-23,1.0000000902652313
-0.4612499991077299,1.0000000708603443,2.4999999131808432,17290984019610775e-23,1.0000000387886456
-0.45937499989909264,1.0000000286461537,2.499999967945261,2239726687371155e-23,1.0000000108425962
-0.45750000039542427,1.0000000068055066,2.499999995050952,-684319326488979e-22,0.9999999983704964
-0.4556250006394546,0.9999999975198381,2.500000005552471,-11098315791043508e-23,0.9999999947081221
-0.45375000069561366,0.9999999949266073,2.5000000075805904,-11912457466138984e-23,0.9999999951257837
-0.45187500062933217,0.9999999951988161,2.5000000063181864,-1057367638565103e-22,0.9999999967436141
-0.4500000005017075,0.999999996202943,2.5000000045467106,-8219631377183739e-23,0.9999999981339047
-0.4481250003635919,0.999999996996367,2.5000000033946357,-5770752978150728e-23,0.9999999988301352
-0.44625000024355205,0.9999999973449205,2.5000000030366025,-3716386848051048e-23,0.9999999988885587
-0.4443750001526987,0.99999999735134,2.5000000032208325,-22222206039076454e-24,0.9999999985691733
-0.442500000090439,0.9999999972156222,2.5000000036011927,-12457017433692043e-24,0.9999999981435337
-0.44062500005165517,0.999999997109471,2.5000000039041264,-6745621315868098e-24,0.9999999978057909
-0.438750000029717,0.9999999971313122,2.500000003981339,-3801100975938336e-24,0.9999999976526253
-0.43687500001827956,0.9999999973071282,2.5000000037994488,-24628599554378526e-25,0.9999999976991183
-0.43500000001264943,0.9999999976115573,2.5000000034034158,-19195515309377594e-25,0.9999999979077394
-0.43312500000974385,0.9999999979938566,2.5000000028753466,-16713090269757455e-25,0.9999999982177342
-0.4312500000078359,0.9999999983996068,2.5000000023012614,-14653548514972809e-25,0.9999999985676771
-0.4293750000061645,0.9999999987843284,2.5000000017508004,-12152897278458082e-25,0.9999999989086511
-0.4275000000045458,0.9999999991191474,2.500000001269148,-9259024261504777e-25,0.9999999992090828
-0.4256250000030393,0.9999999993906799,2.5000000008776144,-6347097056972965e-25,0.9999999994538715
-0.42375000000173224,0.9999999995977465,2.500000000578865,-37441306914667575e-26,0.9999999996405877
-0.4218750000007089,0.9999999997470416,2.500000000363589,-167833699767987e-24,0.9999999997748565
-0.41999999999999993,0.9999999998491178,2.5000000002165983,-23219401900993944e-27,0.999999999866236
-0.41812499999958036,0.9999999999153716,2.5000000001213736,6383349561761723e-26,0.9999999999251921
-0.41624999999938933,0.9999999999561585,2.5000000000628813,10514220561404495e-26,0.9999999999612394
-0.4143749999993569,0.9999999999798945,2.500000000028918,11456742587929514e-26,0.9999999999820739
-0.4124999999994193,0.9999999999928539,2.5000000000104086,10488770984140183e-26,0.9999999999933878
-0.4106249999995258,0.9999999999993838,2.5000000000010845,8610894173340308e-26,0.9999999999990844
-0.4087499999996415,1.0000000000023022,2.4999999999969007,6515333943765079e-26,1.0000000000016611
-0.4068749999997463,1.0000000000033198,2.499999999995413,46032236658615705e-27,1.0000000000026112
-0.4049999999998309,1.0000000000034144,2.499999999995235,3054400366204344e-26,1.000000000002773
-0.4031249999998939,1.0000000000031064,2.499999999995631,19052833979764134e-27,1.0000000000025837
-0.4012499999999375,1.000000000002656,2.4999999999962372,1113164670505657e-26,1.0000000000022586
-0.39937499999996573,1.0000000000021847,2.4999999999968834,60247245221138424e-28,1.0000000000018974
-0.397499999999983,1.0000000000017433,2.4999999999974962,2939455626747078e-27,1.0000000000015443
-0.3956249999999929,1.000000000001354,2.4999999999980425,12015282904167332e-28,1.0000000000012204
-0.3937499999999981,1.0000000000010236,2.4999999999985114,30013388971375764e-29,1.0000000000009364
-0.3918750000000005,1.0000000000007518,2.4999999999989004,-11579429538637404e-29,1.0000000000006966
-0.39000000000000157,1.0000000000005358,2.4999999999992126,-2746653068804072e-28,1.0000000000005014
-0.3881250000000018,1.0000000000003697,2.499999999999455,-3105172247139936e-28,1.0000000000003488
-0.38625000000000165,1.0000000000002454,2.499999999999636,-28806046303910835e-29,1.0000000000002327
-0.3843750000000014,1.0000000000001563,2.499999999999767,-2448363616014199e-28,1.0000000000001488
-0.3825000000000011,1.0000000000000944,2.499999999999859,-20295906724390105e-29,1.00000000000009
-0.38062500000000093,1.0000000000000528,2.4999999999999205,-16406385948814259e-29,1.0000000000000504
-0.37875000000000075,1.0000000000000266,2.4999999999999596,-1312624760307068e-28,1.0000000000000253
-0.3768750000000005,1.0000000000000109,2.4999999999999836,-10433315147989265e-29,1.00000000000001
-0.37500000000000044,1.000000000000002,2.499999999999997,-8281795763880475e-29,1.0000000000000016
-0.3731250000000004,0.9999999999999976,2.5000000000000036,-6177042929229684e-29,0.9999999999999973
-0.3712500000000002,0.9999999999999956,2.500000000000007,-4587309114435442e-29,0.9999999999999957
-0.3693750000000002,0.9999999999999954,2.5000000000000075,-33330273976706966e-30,0.9999999999999956
-0.3675000000000001,0.9999999999999961,2.500000000000007,-23889956960336857e-30,0.9999999999999962
-0.3656250000000001,0.9999999999999967,2.5000000000000058,-16869478680159385e-30,0.9999999999999968
-0.3637500000000001,0.9999999999999976,2.500000000000005,-11605557395534215e-30,0.9999999999999977
-0.361875,0.9999999999999979,2.500000000000003,-8404054687245253e-30,0.9999999999999978
-0.36,0.9999999999999987,2.500000000000002,-5505562195337147e-30,0.9999999999999983
-0.358125,0.9999999999999993,2.5000000000000013,-35235064935966265e-31,0.9999999999999991
-0.35624999999999996,0.9999999999999993,2.500000000000001,-4324818505393369e-30,0.9999999999999991
-0.354375,1,2.5000000000000004,-2301147496644419e-30,0.9999999999999998
-0.3525,1,2.5000000000000004,-4447913505271318e-30,0.9999999999999998
-0.35062499999999996,0.9999999999999999,2.5,-11135343617767198e-31,0.9999999999999996
-0.34875,1,2.5,-10638316165095894e-31,0.9999999999999998
-0.346875,1,2.5,-4772251484297798e-31,0.9999999999999998
-0.345,0.9999999999999999,2.4999999999999996,-8208257960131353e-31,0.9999999999999996
-0.343125,1,2.4999999999999996,-11485098886530612e-31,0.9999999999999998
-0.34125,1,2.499999999999999,-1442452002752871e-30,0.9999999999999996
-0.339375,1,2.499999999999999,-20955696866477363e-31,0.9999999999999996
-0.33749999999999997,0.9999999999999997,2.499999999999999,-2534618536705358e-30,0.9999999999999992
-0.335625,1,2.4999999999999996,-27898381859062453e-31,0.9999999999999998
-0.33375,1,2.5,-28411701734967328e-31,0.9999999999999998
-0.331875,0.9999999999999999,2.5,-4798367002473766e-30,0.9999999999999996
-0.33,0.9999999999999997,2.5,-6428981622631131e-30,0.9999999999999994
-0.32812500000000006,1,2.5000000000000004,-7355952085258698e-30,0.9999999999999998
-0.32625,1,2.500000000000001,-25571908671253367e-31,1
-0.32437499999999997,0.9999999999999999,2.500000000000001,-13826168656409449e-31,0.9999999999999998
-0.3225,1,2.5000000000000013,-11393258479491471e-31,1.0000000000000002
-0.320625,1.0000000000000002,2.5000000000000013,-11112960803604793e-31,1.0000000000000002
-0.31875,1,2.5000000000000013,-5272703293311149e-31,1.0000000000000002
-0.31687499999999996,0.9999999999999999,2.5000000000000013,-527580203969987e-30,1
-0.315,1.0000000000000002,2.5000000000000013,-20876043774755533e-32,1.0000000000000002
-0.313125,1.0000000000000002,2.500000000000001,-32403530184075106e-32,1.0000000000000002
-0.31124999999999997,1,2.5000000000000004,-18888657267139938e-32,0.9999999999999998
-0.309375,1.0000000000000002,2.5,-2405117570708229e-31,1
-0.3075,1.0000000000000004,2.5,-928115711949429e-30,1.0000000000000002
-0.305625,1,2.5,-8786245615738663e-31,0.9999999999999998
-0.30374999999999996,0.9999999999999999,2.5,-42056219850569655e-32,0.9999999999999996
-0.301875,1.0000000000000002,2.5,-9587833485184391e-31,1
-0.3,1.0000000000000002,2.5,-8842812694907816e-31,1
-0.298125,1,2.5,-15416327425531918e-31,0.9999999999999998
-0.29625,1.0000000000000002,2.5,-6093831021551101e-31,1
-0.294375,1.0000000000000004,2.5,-12677873111937875e-31,1.0000000000000002
-0.2925,1,2.5,-10072380611261332e-31,0.9999999999999998
-0.29062499999999997,0.9999999999999999,2.5,-4466317219897228e-31,0.9999999999999996
-0.28875,1.0000000000000002,2.5,-9821278396098146e-31,1
-0.286875,1.0000000000000002,2.5,-2263549200572845e-30,1
-0.285,1,2.5,-23209176363049466e-31,0.9999999999999998
-0.283125,1.0000000000000002,2.5,-41498126787032144e-32,1
-0.28125,1.0000000000000004,2.5,-5168595237631954e-31,1.0000000000000002
-0.279375,1,2.4999999999999996,-5826516507406112e-31,0.9999999999999998
-0.27749999999999997,0.9999999999999999,2.4999999999999996,-5102636416389148e-31,0.9999999999999996
-0.275625,1,2.499999999999999,-8981790786651017e-31,0.9999999999999996
-0.27375,1,2.4999999999999987,-12622304618175938e-31,0.9999999999999994
-0.271875,0.9999999999999999,2.4999999999999987,-1933134214224303e-30,0.9999999999999992
-0.27,1,2.4999999999999982,-21511181950663957e-31,0.9999999999999992
-0.268125,1,2.4999999999999982,-27239521444378073e-31,0.9999999999999992
-0.26625,0.9999999999999998,2.4999999999999982,-34428539767573103e-31,0.9999999999999991
-0.26437499999999997,0.9999999999999997,2.4999999999999982,-4113430411275331e-30,0.9999999999999989
-0.2625,0.9999999999999999,2.499999999999999,-3186391385523121e-30,0.9999999999999992
-0.260625,1,2.5,-42011093737179285e-31,0.9999999999999998
-0.25875,0.9999999999999999,2.5,-384229450325475e-29,0.9999999999999996
-0.256875,0.9999999999999997,2.5000000000000004,-6785976265344853e-30,0.9999999999999994
-0.255,1,2.500000000000001,-53855002341350026e-31,1
-0.253125,1,2.500000000000001,-20176914273651955e-31,1
-0.25125,0.9999999999999999,2.5000000000000013,-12319863998540946e-31,1
-0.249375,1,2.5000000000000018,-8623344700834822e-31,1.0000000000000002
-0.2475,1.0000000000000002,2.500000000000002,-25585112071498675e-32,1.0000000000000007
-0.24562499999999998,1,2.500000000000002,6365840981871133e-31,1.0000000000000004
-0.24374999999999997,0.9999999999999999,2.500000000000002,15781728087739138e-31,1.0000000000000002
-0.24187499999999998,1.0000000000000002,2.5000000000000018,3601019930477797e-30,1.0000000000000004
-0.23999999999999996,1.0000000000000002,2.5000000000000013,55932645659017655e-31,1.0000000000000002
-0.23812499999999995,1.0000000000000002,2.5000000000000004,8137827099912833e-30,1
-0.23624999999999996,1.0000000000000007,2.4999999999999996,11153417353712154e-30,1.0000000000000004
-0.23437499999999994,1.0000000000000013,2.4999999999999987,1356185484923621e-29,1.000000000000001
-0.2324999999999999,1.0000000000000024,2.499999999999997,14324513431932667e-30,1.0000000000000022
-0.2306249999999999,1.0000000000000049,2.499999999999993,1114488443962992e-29,1.0000000000000044
-0.22875,1.0000000000000093,2.499999999999986,-23604884097877595e-31,1.0000000000000087
-0.22687500000000016,1.0000000000000167,2.4999999999999747,-3383364400583554e-29,1.000000000000016
-0.22500000000000045,1.0000000000000289,2.4999999999999556,-9687655436094678e-29,1.0000000000000278
-0.22312500000000107,1.0000000000000482,2.4999999999999267,-2106754341969679e-28,1.000000000000047
-0.22125000000000203,1.0000000000000773,2.499999999999883,-40256782926453493e-29,1.000000000000076
-0.21937500000000354,1.0000000000001188,2.4999999999998206,-7084497124016262e-28,1.0000000000001172
-0.21750000000000586,1.0000000000001754,2.499999999999736,-11713318390976285e-28,1.0000000000001732
-0.21562500000000925,1.0000000000002476,2.4999999999996296,-18352415332335836e-28,1.0000000000002445
-0.21375000000001382,1.0000000000003284,2.4999999999995093,-2738603615672324e-27,1.0000000000003237
-0.21187500000001974,1.0000000000004028,2.4999999999993996,-38905786751996335e-28,1.000000000000395
-0.21000000000002683,1.0000000000004365,2.4999999999993516,-5251750467606518e-27,1.0000000000004239
-0.2081250000000345,1.0000000000003646,2.4999999999994635,-6677877248663272e-27,1.0000000000003448
-0.20625000000004126,1.0000000000000768,2.499999999999901,-7868869016076918e-27,1.0000000000000466
-0.20437500000004458,0.9999999999993948,2.5000000000009326,-8273811913418142e-27,0.9999999999993512
-0.20250000000004004,0.9999999999980477,2.500000000002962,-6968797203122369e-27,0.9999999999979878
-0.20062500000002054,0.9999999999956456,2.5000000000065734,-2510581402292531e-27,0.999999999995571
-0.19874999999997547,0.9999999999916599,2.500000000012555,72402034033339055e-28,0.9999999999915804
-0.19687499999988978,0.9999999999854174,2.5000000000219043,25263697592714917e-27,0.9999999999853629
-0.1949999999997424,0.9999999999761398,2.5000000000357696,5568837890460574e-26,0.9999999999761767
-0.1931249999995045,0.999999999963047,2.500000000055284,10398552443660969e-26,0.9999999999633071
-0.19124999999913844,0.9999999999455814,2.500000000081223,17713333620252194e-26,0.999999999946308
