position,density,energy,velocity,pressure
-0.6493065874198856,0.1495012713426088,3.7929498474056795,-3.4741992215877384,0.21253526095911401
-0.6341630149496189,0.2160118984400463,3.7731065608946635,-2.225891996261226,0.29730597118382673
-0.622464244225582,0.261181572552175,3.8286395580275787,-1.5436888387410255,0.3659092664756477
-0.6138084822618315,0.3143863322363294,3.7004886654559117,-1.2179960396870755,0.44642476751967236
-0.6069866377730255,0.376116757451329,3.569312625556797,-1.00005438009967,0.5243199474532331
-0.6014361840159376,0.4426807672002647,3.4324923971312855,-0.8498632266985597,0.5934609586372497
-0.596613481888885,0.5124031783214289,3.303320770235486,-0.718580961053575,0.6583117391071207
-0.5923503722779137,0.581598056791434,3.1803128213417358,-0.598645640456249,0.7178861348022892
-0.5885637571051475,0.6461956631362005,3.068298958444837,-0.4872592881918115,0.7690630342272892
-0.5852091388216618,0.7035351018375426,2.9708954829612297,-0.3886243447994724,0.8113089918928095
-0.5823486947990689,0.7513308402490406,2.8899251389867584,-0.3115139548985406,0.8440453681206369
-0.5798071906700868,0.791653737531434,2.822512426362178,-0.2487375371688676,0.870143738967527
-0.5773972184784022,0.8270297411179062,2.7643690428712357,-0.19300036166474024,0.8922113900356221
-0.5750586629704122,0.8581831672528589,2.7146764807132997,-0.1426661540638362,0.9114407857273807
-0.5727884110885179,0.8852056514875496,2.6728718520558656,-0.09881086955922463,0.9281117597088936
-0.5705731621249425,0.9084507736513101,2.6373555764554686,-0.06216817802943393,0.942439232138191
-0.5684030691893902,0.9282403301542204,2.6074606272620158,-0.032259018154172155,0.9547289483359559
-0.5663024145424924,0.9447600211913881,2.5824856621884833,-0.011046287425805807,0.96500991551445
-0.5642956369759297,0.9583365978709326,2.561899466346789,-0.0006125603944842264,0.9734978495720559
-0.5623609270131464,0.9693997390148192,2.5451057953996536,0.0033886364774337353,0.9804256259371529
-0.5604699140039544,0.9783786509767154,2.5315677816747106,0.004560742179026,0.9860855717275134
-0.5586085431720442,0.9855904377814283,2.5208412801005946,0.00399169054870409,0.9906538741488603
-0.5567691241014112,0.9912737853406286,2.51253425269723,0.0021742526684967595,0.9942664841495303
-0.5549378889509524,0.9956228552503774,2.5062916487912488,296086746264055e-20,0.997023881536254
-0.5531009244101711,0.9987978503143115,2.5018221150493543,-0.0015712496680436202,0.9990231356359643
-0.5512537516126156,1.0009363015948363,2.4988746200266623,-0.002431083212494838,1.000352937255517
-0.5493923766439593,1.0021872776857101,2.497199835179869,-0.0021667668564726516,1.0011148447672389
-0.5475180132847715,1.0027197582208813,2.4965246464379356,-0.0008615502228446811,1.0014250672146505
-0.5456367816457863,1.0027186925542468,2.49656555751365,0.0006965332246823149,1.0014087227509223
-0.5437528996703727,1.002369930529972,2.497054645584488,0.002021075176164176,1.0011881586610014
-0.5418698850425823,1.00184230399082,2.497758953577206,0.0028085792823500807,1.0008715668786912
-0.5399902610076647,1.0012728632588435,2.498497385837848,0.002919917040958595,1.000543927483528
-0.5381150264865545,1.0007576263829085,2.499148987736324,0.002362088223381806,1.0002617088643684
-0.5362425573278957,1.0003503080769458,2.499650487897322,0.0015286665801142014,1.0000532785044687
-0.5343711095508709,1.0000682543716635,2.4999858741041763,0.0007122380554457704,0.9999239341665574
-0.5324996979123795,0.9999026201238624,2.5001716805193444,24066983120256126e-21,0.9998634222012898
-0.5306276019365113,0.999829301304698,2.500242452307339,-0.0004688847703838469,0.9998534017949398
-0.5287544901296121,0.9998185421447353,2.5002384074572195,-0.0007547872819456534,0.9998735781404751
-0.5268803246896495,0.9998422400807125,2.5001962651337433,-0.000860423027379183,0.9999061020631875
-0.5250052013738988,0.999878474523342,2.500143728600009,-0.0008123037080378817,0.9999381300952098
-0.5231293929334352,0.9999131467948298,2.500097739808722,-0.0006604769055555962,0.9999625175890633
-0.5212532740125353,0.9999393684735649,2.500065674064249,-0.000470012667332483,0.9999770260791937
-0.5193771798483228,0.9999556443530793,2.5000480199760813,-0.0002949188250316919,0.9999827796482419
-0.5175012922646036,0.9999637059727202,2.5000413839036755,-0.00016054355042180324,0.9999825991726969
-0.5156256688642263,0.999966599830473,2.5000410411217246,-7245627295281874e-20,0.9999796379412176
-0.5137502849337272,0.9999673226941997,2.500042689328065,-23116079901002532e-21,0.9999764919313273
-0.5118750866061875,0.9999680542501576,2.500043382092503,-18056164936754085e-22,0.999974773208994
-0.5100000099379266,0.9999699267373584,2.5000417393677528,26773648100950634e-22,0.9999750855985974
-0.5081250015851073,0.9999731726550634,2.500037660941447,-11192638965365612e-22,0.9999772672668413
-0.506250019426112,0.9999774484744504,2.5000318260763623,-6768864586176759e-21,0.9999807294770153
-0.5043750360453229,0.9999821697424691,2.500025203640439,-10255324793887334e-21,0.9999847632941838
-0.5025000432470969,0.999986761392306,2.5000186990501945,-11068364117123422e-21,0.9999887479253546
-0.5006250405420185,0.9999907984041995,2.5000129648031235,-9797040588513998e-21,0.9999922533622022
-0.49875003095889575,0.9999940519036413,2.500008347463631,-7290811838724083e-21,0.9999950593080369
-0.4968750187791628,0.9999964708039698,2.500004924943421,-444838654366405e-20,0.9999971213713197
-0.49500000728869586,0.9999981305935448,2.500002587672345,-1907697618221982e-21,0.99999851382592
-0.4931249984809643,0.9999991755217215,2.5000011260787662,-17397873774780266e-24,0.9999993717750987
-0.49124999291723015,0.9999997695887164,2.500000303045244,11602101583409377e-22,0.9999998449556399
-0.4893749904126308,1.0000000631711883,2.4999999024188146,16978365959646457e-22,1.0000000677296252
-0.48749999021130574,1.0000001760556818,2.499999753166621,17668331033242528e-22,1.0000001447961564
-0.4856249913897115,1.0000001933038023,2.4999997348157104,15602682854594806e-22,1.0000001486353194
-0.48374999319949635,1.0000001689169038,2.499999771704914,12289546143298555e-22,1.0000001237430258
-0.481874995106479,1.0000001330643011,2.4999998222512945,8778823625718547e-22,1.0000000937279352
-0.479999996781488,1.000000099857601,2.4999998675874084,5705970587055948e-22,1.0000000685811863
-0.47812499808351366,1.0000000739476325,2.4999999020222123,33364348372362284e-23,1.0000000506478801
-0.4762499989985599,1.000000055295269,2.4999999262163906,16912329962191501e-23,1.0000000388081773
-0.4743749995810628,1.000000042159252,2.499999942967826,6623857720667219e-23,1.0000000309870745
-0.47249999991223296,1.0000000326720453,2.4999999550407677,931302188017464e-23,1.0000000253841073
-0.4706250000729497,1.0000000254443586,2.499999964384976,-16999916026073368e-24,1.0000000208516204
-0.468750000130279,1.0000000196358771,2.4999999721032933,-25212229951968644e-24,1.0000000168330743
-0.4668750001348141,1.000000014821629,2.499999978689334,-24616733171302046e-24,1.0000000131624251
-0.4650000001151843,1.0000000108230047,2.4999999842954272,-2026910813402082e-23,1.00000000986912
-0.46312500008818797,1.0000000075702233,2.4999999889407634,-1503749106830727e-23,1.000000007037243
-0.46125000006343664,1.0000000050166624,2.4999999926358725,-10516351054558395e-24,1.0000000047271014
-0.4593750000444838,1.0000000030999159,2.4999999954351195,-7219249934780102e-24,1.0000000029469256
-0.4575000000312684,1.0000000017340909,2.4999999974425338,-5030406474362646e-24,1.000000001655483
-0.4556250000225545,1.0000000008178487,2.4999999987950416,-36597596788878557e-25,1.0000000007785812
-0.4537500000169115,1.000000000247028,2.499999999640048,-2813311377784379e-24,1.0000000002279663
-0.45187500001306885,0.999999999925576,2.5000000001166285,-2246673609633629e-24,0.9999999999165904
-0.4500000000102488,0.9999999997724144,2.5000000003436624,-18204611912260902e-25,0.9999999997683049
-0.4481250000080093,0.9999999997241802,2.500000000414742,-14628856838978708e-25,0.999999999722359
-0.44625000000614023,0.9999999997348276,2.500000000398194,-11461860926262853e-25,0.9999999997340466
-0.44437500000456376,0.9999999997733104,2.500000000340215,-8658373480877241e-25,0.9999999997729869
-0.44250000000326023,0.9999999998204211,2.500000000269441,-6258690716923686e-25,0.9999999998202922
-0.44062500000222293,0.9999999998655408,2.5000000002017173,-4303610422230589e-25,0.9999999998654912
-0.4387500000014363,0.9999999999037821,2.5000000001443374,-2797330584708734e-25,0.9999999999037636
-0.4368750000008705,0.9999999999337429,2.50000000009939,-1701994661590622e-25,0.9999999999337363
-0.43500000000048517,0.9999999999558931,2.5000000000661617,-9507268589516188e-26,0.9999999999558907
-0.43312500000023807,0.999999999971526,2.500000000042711,-46649083629683715e-27,0.9999999999715251
-0.4312500000000903,0.9999999999821328,2.5000000000268003,-17601153676071684e-27,0.9999999999821323
-0.42937500000000967,0.9999999999890842,2.500000000016373,-1733306867162666e-27,0.9999999999890837
-0.4274999999999717,0.9999999999934989,2.500000000009751,5758096692032328e-27,0.9999999999934985
-0.42562499999995856,0.9999999999962222,2.5000000000056657,8324609613162172e-27,0.9999999999962218
-0.42374999999995866,0.9999999999978563,2.5000000000032143,828330939146871e-26,0.9999999999978559
-0.4218749999999647,0.9999999999988117,2.5000000000017812,7074355929288894e-27,0.9999999999988114
-0.41999999999997234,0.9999999999993566,2.500000000000964,5525137840495983e-27,0.9999999999993562
-0.4181249999999797,0.999999999999659,2.50000000000051,4054058608099673e-27,0.9999999999996587
-0.41624999999998585,0.9999999999998237,2.500000000000264,28344180661691414e-28,0.9999999999998236
-0.41437499999999045,0.9999999999999107,2.5000000000001332,19045366190113892e-28,0.9999999999999106
-0.4124999999999938,0.9999999999999558,2.5000000000000657,12359957685437919e-28,0.9999999999999556
-0.41062499999999613,0.9999999999999787,2.500000000000032,7777392833085955e-28,0.9999999999999785
-0.40874999999999756,0.9999999999999897,2.500000000000015,4730506568066291e-28,0.9999999999999895
-0.4068749999999986,0.9999999999999954,2.500000000000007,28164030458528667e-29,0.9999999999999951
-0.40499999999999914,0.9999999999999979,2.5000000000000036,16308451814811065e-29,0.9999999999999977
-0.4031249999999995,0.9999999999999992,2.500000000000002,909406893506978e-28,0.9999999999999992
-0.4012499999999998,0.9999999999999999,2.5000000000000018,4966994303445489e-29,1
-0.39937499999999987,1.0000000000000004,2.5000000000000013,2699928213919133e-29,1.0000000000000007
-0.3974999999999999,1.0000000000000002,2.5000000000000013,14400758024593947e-30,1.0000000000000002
-0.39562499999999995,1.0000000000000007,2.500000000000001,8198655640555287e-30,1.0000000000000007
-0.39375,1.0000000000000004,2.5,4420585948776338e-30,1.0000000000000002
-0.391875,1,2.5,23398495500687362e-31,0.9999999999999998
-0.39,1.0000000000000004,2.5,1389187237003672e-30,1.0000000000000002
-0.388125,1.0000000000000002,2.5,2537894069196963e-31,1
-0.38625,1,2.4999999999999996,-8525415770885546e-31,0.9999999999999998
-0.384375,1,2.4999999999999996,-10782362438445815e-31,0.9999999999999998
-0.38249999999999995,0.9999999999999999,2.4999999999999996,-31188622948220183e-31,0.9999999999999996
-0.380625,0.9999999999999999,2.5,-35081165259995275e-31,0.9999999999999996
-0.37875,1,2.5,-34153695170143384e-31,0.9999999999999998
-0.37687499999999996,0.9999999999999999,2.5,-3479224542712644e-30,0.9999999999999996
-0.375,1,2.5,-3839080608501394e-30,0.9999999999999998
-0.373125,1,2.5,-17726330719595124e-31,0.9999999999999998
-0.37124999999999997,1,2.5000000000000004,-9134559701156557e-31,0.9999999999999998
-0.369375,1.0000000000000002,2.5000000000000004,-472982719473082e-30,1
-0.3675,1.0000000000000002,2.5000000000000004,-1390961794495778e-31,1
-0.365625,1,2.5000000000000004,-13940847817060766e-32,0.9999999999999998
-0.36375,1.0000000000000002,2.5000000000000004,-13982511852154885e-32,1
-0.36187499999999995,0.9999999999999999,2.5,-812952462249023e-30,0.9999999999999996
-0.36,1,2.5,-5149240445896523e-31,0.9999999999999998
-0.358125,1.0000000000000002,2.5,-291981014213963e-30,1
-0.35624999999999996,1,2.5,-16675008673068977e-31,0.9999999999999998
-0.354375,1.0000000000000002,2.5,-10067874054615412e-31,1
-0.3525,1,2.5,-23140259847458466e-31,0.9999999999999998
-0.35062499999999996,0.9999999999999999,2.5,-7339215356790312e-31,0.9999999999999996
-0.34875,1,2.5,-7894166964890512e-31,0.9999999999999998
-0.346875,1,2.5,1944875773831296e-32,0.9999999999999998
-0.345,0.9999999999999999,2.5,-7096928357616822e-32,0.9999999999999996
-0.343125,1,2.5,-32842104578454665e-32,0.9999999999999998
-0.34125,1,2.5,-323927149358949e-30,0.9999999999999998
-0.339375,1,2.5,-8057896588268791e-31,0.9999999999999998
-0.33749999999999997,0.9999999999999997,2.5,-10480464305451853e-31,0.9999999999999994
-0.335625,1,2.5,-1163397733029291e-30,0.9999999999999998
-0.33375,1,2.5,-1249133802295711e-30,0.9999999999999998
-0.331875,0.9999999999999999,2.5,-23285604133590853e-31,0.9999999999999996
-0.32999999999999996,0.9999999999999997,2.5,-3182053282806062e-30,0.9999999999999994
-0.328125,1,2.5,-3815152401698731e-30,0.9999999999999998
-0.32625,1,2.5,-16754063503601817e-31,0.9999999999999998
-0.32437499999999997,0.9999999999999999,2.5,-9666143366847633e-31,0.9999999999999996
-0.3225,1,2.5000000000000004,-8006380051529468e-31,0.9999999999999998
-0.320625,1.0000000000000002,2.5000000000000004,-9657864937255616e-31,1
-0.31875,1,2.5000000000000004,-18020237872539096e-32,0.9999999999999998
-0.31687499999999996,0.9999999999999999,2.5000000000000004,-32268893993688375e-32,0.9999999999999996
-0.315,1.0000000000000002,2.5000000000000004,-17470065443979868e-32,1
-0.313125,1.0000000000000002,2.5,-16901056721972404e-32,1
-0.31124999999999997,1,2.5,-13562821258699117e-34,0.9999999999999998
-0.309375,1.0000000000000002,2.5,3554464543497001e-32,1
-0.3075,1.0000000000000004,2.5,-5562668752866405e-31,1.0000000000000002
-0.305625,1,2.5,-41917928323154352e-32,0.9999999999999998
-0.30374999999999996,0.9999999999999999,2.5,-7505788446412906e-32,0.9999999999999996
-0.301875,1.0000000000000002,2.5,-4545927022054024e-31,1
-0.3,1.0000000000000002,2.5,-41214938365139053e-32,1
-0.298125,1,2.5,-936231590761642e-30,0.9999999999999998
-0.29625,1.0000000000000002,2.5,-223477561186069e-30,1
-0.294375,1.0000000000000004,2.5,-6653455153175782e-31,1.0000000000000002
-0.2925,1,2.5,-5363425044890609e-31,0.9999999999999998
-0.29062499999999997,0.9999999999999999,2.5,-11886503183957527e-32,0.9999999999999996
-0.28875,1.0000000000000002,2.5,-5287564282074129e-31,1
-0.286875,1.0000000000000002,2.5,-12105261696572982e-31,1
-0.285,1,2.5,-13104836845483263e-31,0.9999999999999998
-0.283125,1.0000000000000002,2.5,-13213780902453204e-32,1
-0.28125,1.0000000000000004,2.5,3855384523112365e-33,1.0000000000000002
-0.279375,1,2.5,402524244422408e-31,0.9999999999999998
-0.27749999999999997,0.9999999999999999,2.5,15821776057372164e-32,0.9999999999999996
-0.275625,1,2.5,-2729591643293442e-32,0.9999999999999998
-0.27375,1,2.4999999999999996,4390495610965852e-32,0.9999999999999998
-0.271875,0.9999999999999999,2.4999999999999996,-4705860449246356e-31,0.9999999999999996
-0.27,1,2.499999999999999,-789528919564621e-30,0.9999999999999996
-0.268125,1,2.499999999999999,-10198638242863515e-31,0.9999999999999996
-0.26625,0.9999999999999998,2.499999999999999,-15407252947907934e-31,0.9999999999999994
-0.26437499999999997,0.9999999999999997,2.499999999999999,-20406797010775764e-31,0.9999999999999992
-0.2625,0.9999999999999999,2.4999999999999996,-13815088127481637e-31,0.9999999999999996
-0.260625,1,2.5,-2039922732844234e-30,0.9999999999999998
-0.25875,0.9999999999999999,2.5,-19401546841537283e-31,0.9999999999999996
-0.25687499999999996,0.9999999999999997,2.5,-3586183144925268e-30,0.9999999999999994
-0.255,1,2.5,-32308124913520166e-31,0.9999999999999998
-0.253125,1,2.5,-13693070412471109e-31,0.9999999999999998
-0.25125,0.9999999999999999,2.5000000000000004,-8701714749027638e-31,0.9999999999999996
-0.249375,1,2.5000000000000004,-8064414611069043e-31,0.9999999999999998
-0.2475,1.0000000000000002,2.500000000000001,-8649361953687407e-31,1.0000000000000002
-0.24562499999999998,1,2.500000000000001,-24397489498251273e-32,1
-0.24374999999999997,0.9999999999999999,2.500000000000001,-4644818380122489e-31,0.9999999999999998
-0.241875,1.0000000000000002,2.500000000000001,-8467499985882313e-32,1.0000000000000002
-0.24,1.0000000000000002,2.5000000000000004,-2093618130527072e-31,1
-0.23812499999999998,1,2.5,54171327738795415e-34,0.9999999999999998
-0.23625000000000002,1.0000000000000002,2.5,17480896094381864e-32,1
-0.234375,1.0000000000000004,2.5,6179308500652076e-32,1.0000000000000002
-0.23249999999999998,1,2.5,29930811603859264e-33,0.9999999999999998
-0.23062499999999997,0.9999999999999999,2.5,1530691238657243e-31,0.9999999999999996
-0.22875,1,2.4999999999999996,-3520476495535468e-32,0.9999999999999998
-0.226875,1,2.4999999999999996,3806001487449501e-32,0.9999999999999998
-0.22499999999999998,0.9999999999999999,2.499999999999999,-4969917406454664e-31,0.9999999999999994
-0.22312500000000002,1,2.499999999999999,-8331119058750797e-31,0.9999999999999996
-0.22125,1,2.499999999999999,-10567934749531339e-31,0.9999999999999996
-0.219375,0.9999999999999998,2.499999999999999,-15895628251554196e-31,0.9999999999999994
-0.21749999999999997,0.9999999999999997,2.499999999999999,-20830992591159082e-31,0.9999999999999992
-0.215625,0.9999999999999999,2.4999999999999996,-14146533831565054e-31,0.9999999999999996
-0.21375,1,2.5,-21075280356528255e-31,0.9999999999999998
-0.21187499999999998,0.9999999999999999,2.5,-2088299132028858e-30,0.9999999999999996
-0.21,0.9999999999999997,2.5,-3899755063984238e-30,0.9999999999999994
-0.20812500000000003,1,2.5,-3889705990431268e-30,0.9999999999999998
-0.20625,1,2.5,-2758405667592899e-30,0.9999999999999998
-0.204375,0.9999999999999999,2.5000000000000004,-3723695686417809e-30,0.9999999999999996
-0.20250000000000004,1,2.5000000000000004,-6259889577377598e-30,0.9999999999999998
-0.20062500000000005,1.0000000000000002,2.5000000000000004,-11426052919332549e-30,1
-0.1987500000000001,1,2.5000000000000004,-19770099355461155e-30,0.9999999999999998
-0.19687500000000013,0.9999999999999997,2.500000000000001,-3560883032966184e-29,0.9999999999999994
-0.1950000000000003,0.9999999999999994,2.5000000000000013,-6236224328672849e-29,0.9999999999999992
-0.19312500000000052,0.9999999999999986,2.500000000000002,-10682459374365185e-29,0.9999999999999983
-0.19125000000000086,0.9999999999999969,2.5000000000000053,-17793518106622814e-29,0.9999999999999966
-0.18937500000000146,0.999999999999993,2.500000000000011,-28662013425765246e-29,0.9999999999999929
-0.18750000000000222,0.9999999999999851,2.5000000000000226,-44466962528212064e-29,0.9999999999999849
-0.18562500000000326,0.9999999999999685,2.500000000000047,-6568112108803666e-28,0.9999999999999681
-0.18375000000000452,0.999999999999937,2.5000000000000946,-9113834256603386e-28,0.9999999999999369
-0.18187500000000578,0.9999999999998767,2.500000000000185,-1155647283157832e-27,0.9999999999998765
-0.18000000000000624,0.9999999999997637,2.5000000000003544,-12491247883693987e-28,0.9999999999997635
-0.17812500000000445,0.9999999999995592,2.5000000000006612,-8934511260477482e-28,0.999999999999559
-0.17624999999999755,0.9999999999991975,2.5000000000012035,4884304263459315e-28,0.9999999999991972
-0.17437499999998032,0.9999999999985784,2.500000000002132,3923025590304466e-27,0.9999999999985781
-0.17249999999994414,0.9999999999975516,2.5000000000036726,11134602863336721e-27,0.9999999999975514
-0.17062499999987538,0.9999999999959077,2.5000000000061386,2484817228078413e-26,0.9999999999959074
-0.16874999999975357,0.9999999999933842,2.500000000009924,4913040979123163e-26,0.999999999993384
-0.16687499999954994,0.9999999999897031,2.500000000015446,8968058310628576e-26,0.9999999999897029
-0.16499999999922707,0.9999999999846833,2.5000000000229754,1538915059243115e-25,0.9999999999846825
